#time(au), s(t), s(t) without exp(iwt)
 0.00000000000000e+01  0.00000000000000e+00  0.00000000000000e+00
 4.13413741709430e+02  1.62431975621015e-18 -6.53191735923182e-18
 8.26827483418859e+02  1.53491649639892e-18 -4.19641544946653e-18
 1.24024122512829e+03 -6.41453686429088e-19 -2.36224705793652e-18
 1.65365496683772e+03 -4.84555379936129e-18 -1.61316353969495e-18
 2.06706870854715e+03  6.23369707249273e-18  4.58705473880104e-18
 2.48048245025658e+03 -2.46167949330649e-17 -2.37156839158916e-18
 2.89389619196601e+03  4.30512173841773e-17  1.47476965766019e-17
 3.30730993367544e+03 -7.85878199374674e-17  2.56751964671950e-17
 3.72072367538487e+03  1.73831395197880e-16 -2.23971541516468e-18
 4.13413741709430e+03 -1.94619134106974e-16  1.32020271639247e-16
 4.54755115880373e+03  5.82771742843845e-16  2.45067253900532e-16
 4.96096490051316e+03 -3.28187796640939e-16  2.84733299011975e-16
 5.37437864222259e+03  1.87176510852069e-15  8.76232216917109e-16
 5.78779238393202e+03  7.57662044470051e-17  1.49535771422160e-15
 6.20120612564145e+03  6.02982581820922e-15  2.79631441782359e-15
 6.61461986735088e+03  3.80712707542268e-15  8.05906752006412e-15
 7.02803360906031e+03  1.98143021443605e-14  1.50890950555686e-14
 7.44144735076974e+03  2.19832557729151e-14  2.72466082711253e-14
 7.85486109247917e+03  6.55751242697425e-14  6.36883136025246e-14
 8.26827483418859e+03  9.30179007864510e-14  9.89218786109259e-14
 8.68168857589802e+03  2.13047518144164e-13  1.91488720282767e-13
 9.09510231760745e+03  3.35802936536800e-13  3.73356557723148e-13
 9.50851605931688e+03  6.64118019818846e-13  6.25927725249198e-13
 9.92192980102631e+03  1.08420097874500e-12  1.12462676945732e-12
 1.03353435427357e+04  1.95652063248579e-12  1.90228156479020e-12
 1.07487572844452e+04  3.19133174038663e-12  3.17441654728694e-12
 1.11621710261546e+04  5.39991730959799e-12  5.32228813607106e-12
 1.15755847678640e+04  8.64145613705290e-12  8.58603068342749e-12
 1.19889985095735e+04  1.39010088938797e-11  1.37896815678671e-11
 1.24024122512829e+04  2.16286513192848e-11  2.14733130749623e-11
 1.28158259929923e+04  3.33155407719011e-11  3.27658620253946e-11
 1.32292397347018e+04  5.01790694007449e-11  4.97940173765256e-11
 1.36426534764112e+04  7.42971314534395e-11  7.34692437337866e-11
 1.40560672181206e+04  1.08124299945833e-10  1.07195371463497e-10
 1.44694809598300e+04  1.54234865898690e-10  1.52806877651505e-10
 1.48828947015395e+04  2.16749132910349e-10  2.13939744502903e-10
 1.52963084432489e+04  2.98316416470968e-10  2.95881980635970e-10
 1.57097221849583e+04  4.04895779287572e-10  3.99767401891099e-10
 1.61231359266678e+04  5.38323625403327e-10  5.32511320271375e-10
 1.65365496683772e+04  7.06108934817298e-10  6.99854819291713e-10
 1.69499634100866e+04  9.07928239141297e-10  8.97611153396399e-10
 1.73633771517960e+04  1.15201853403006e-09  1.13965569412168e-09
 1.77767908935055e+04  1.43436367149918e-09  1.42207589303903e-09
 1.81902046352149e+04  1.76276925969205e-09  1.74470648101555e-09
 1.86036183769243e+04  2.12833169334028e-09  2.10944523698196e-09
 1.90170321186338e+04  2.53735434754856e-09  2.51360310798456e-09
 1.94304458603432e+04  2.97581336954107e-09  2.95318056033428e-09
 1.98438596020526e+04  3.44800548705960e-09  3.41717931018713e-09
 2.02572733437620e+04  3.93588616101872e-09  3.90605540801878e-09
 2.06706870854715e+04  4.44205128648104e-09  4.40882090939789e-09
 2.10841008271809e+04  4.94673943775785e-09  4.91287586729293e-09
 2.14975145688903e+04  5.45178927455741e-09  5.41997652496535e-09
 2.19109283105998e+04  5.93855735702190e-09  5.90049047498868e-09
 2.23243420523092e+04  6.40919740577611e-09  6.37471395439687e-09
 2.27377557940186e+04  6.84863651148980e-09  6.81524809778748e-09
 2.31511695357280e+04  7.26001164271261e-09  7.22203967779400e-09
 2.35645832774375e+04  7.63317345118936e-09  7.60391414946279e-09
 2.39779970191469e+04  7.97224489044789e-09  7.93906035139554e-09
 2.43914107608563e+04  8.27203845079131e-09  8.24037192953757e-09
 2.48048245025657e+04  8.53714353574169e-09  8.50633139445301e-09
 2.52182382442752e+04  8.76637373205722e-09  8.73411223629634e-09
 2.56316519859846e+04  8.96412355455829e-09  8.93559867435887e-09
 2.60450657276940e+04  9.13180340647609e-09  9.09943790628857e-09
 2.64584794694035e+04  9.27315929294895e-09  9.23974463629275e-09
 2.68718932111129e+04  9.39085442513615e-09  9.35723481888260e-09
 2.72853069528223e+04  9.48788721956068e-09  9.45037582215397e-09
 2.76987206945317e+04  9.56715487604818e-09  9.52674594150132e-09
 2.81121344362412e+04  9.63108095601617e-09  9.58863172557629e-09
 2.85255481779506e+04  9.68214476464516e-09  9.63578667863588e-09
 2.89389619196600e+04  9.72246681707351e-09  9.67159805719335e-09
 2.93523756613695e+04  9.75375129472774e-09  9.69898527970157e-09
 2.97657894030789e+04  9.77804572433045e-09  9.71874613053760e-09
 3.01792031447883e+04  9.79613249627184e-09  9.73184811659952e-09
 3.05926168864977e+04  9.81012044981354e-09  9.74052151133456e-09
 3.10060306282072e+04  9.81987443889634e-09  9.74529215755694e-09
 3.14194443699166e+04  9.82761574063546e-09  9.74727715126606e-09
 3.18328581116260e+04  9.83240365825247e-09  9.74653482948233e-09
 3.22462718533355e+04  9.83657256726820e-09  9.74438775766270e-09
 3.26596855950449e+04  9.83855452849187e-09  9.74080657301483e-09
 3.30730993367543e+04  9.84077167700470e-09  9.73629282914629e-09
 3.34865130784637e+04  9.84122932321590e-09  9.73075034539972e-09
 3.38999268201732e+04  9.84239658575822e-09  9.72472824487627e-09
 3.43133405618826e+04  9.84203936018206e-09  9.71820481823294e-09
 3.47267543035920e+04  9.84262323859434e-09  9.71117801503782e-09
 3.51401680453015e+04  9.84182657592510e-09  9.70382727122333e-09
 3.55535817870109e+04  9.84205889648286e-09  9.69618262490940e-09
 3.59669955287203e+04  9.84101940854924e-09  9.68820912491157e-09
 3.63804092704298e+04  9.84101748051986e-09  9.67999440343550e-09
 3.67938230121392e+04  9.83983923383450e-09  9.67153395966754e-09
 3.72072367538486e+04  9.83966825291632e-09  9.66284784691926e-09
 3.76206504955581e+04  9.83840511854188e-09  9.65393748512401e-09
 3.80340642372675e+04  9.83810680780096e-09  9.64482189015721e-09
 3.84474779789769e+04  9.83678204148010e-09  9.63550267425021e-09
 3.88608917206864e+04  9.83638726686413e-09  9.62598618940333e-09
 3.92743054623958e+04  9.83500430679194e-09  9.61627756257070e-09
 3.96877192041052e+04  9.83453912361194e-09  9.60638044285632e-09
 4.01011329458147e+04  9.83308882545058e-09  9.59629754317611e-09
 4.05145466875241e+04  9.83257698104504e-09  9.58603249869331e-09
 4.09279604292335e+04  9.83104337208932e-09  9.57558747905616e-09
 4.13413741709429e+04  9.83050689079588e-09  9.56496536649042e-09
 4.17547879126524e+04  9.82887205512301e-09  9.55416868870175e-09
 4.21682016543618e+04  9.82833023927031e-09  9.54319990859631e-09
 4.25816153960712e+04  9.82657809760066e-09  9.53206172129096e-09
 4.29950291377807e+04  9.82604599706044e-09  9.52075674950089e-09
 4.34084428794901e+04  9.82416545759729e-09  9.50928773318498e-09
 4.38218566211995e+04  9.82365197930405e-09  9.49765744176549e-09
 4.42352703629090e+04  9.82163894223949e-09  9.48586874878485e-09
 4.46486841046184e+04  9.82114504317473e-09  9.47392455305029e-09
 4.50620978463278e+04  9.81900389787579e-09  9.46182782550510e-09
 4.54755115880373e+04  9.81852225300372e-09  9.44958159046079e-09
 4.58889253297467e+04  9.81626630008635e-09  9.43718892792604e-09
 5.00230627468410e+04  9.80119551785371e-09  9.30590355265253e-09
 5.41572001639353e+04  9.78385877340007e-09  9.16353915609828e-09
 5.82913375810296e+04  9.76394711341589e-09  9.01337879348853e-09
 6.24254749981239e+04  9.74180968674880e-09  8.85851342479032e-09
 6.65596124152182e+04  9.71859172142265e-09  8.70168850402502e-09
 7.06937498323125e+04  9.69477710799741e-09  8.54522195996600e-09
 7.48278872494068e+04  9.66969483193221e-09  8.39097584099838e-09
 7.89620246665011e+04  9.64310302113239e-09  8.24036393480628e-09
 8.30961620835954e+04  9.61599322991880e-09  8.09438496603328e-09
 8.72302995006897e+04  9.58882578609380e-09  7.95367094581037e-09
 9.13644369177840e+04  9.56071493238803e-09  7.81854342915261e-09
 9.54985743348783e+04  9.53139135733527e-09  7.68907240451263e-09
 9.96327117519726e+04  9.50221236905609e-09  7.56513407801989e-09
 1.03766849169067e+05  9.47396934129782e-09  7.44646498678786e-09
 1.07900986586161e+05  9.44542645029422e-09  7.33271075356728e-09
 1.12035124003255e+05  9.41591105579094e-09  7.22346844722415e-09
 1.16169261420350e+05  9.38694458191934e-09  7.11832199833531e-09
 1.20303398837444e+05  9.35938192985373e-09  7.01687048324268e-09
 1.24437536254538e+05  9.33162483208595e-09  6.91874936851720e-09
 1.28571673671633e+05  9.30246754532944e-09  6.82364502634503e-09
 1.32705811088727e+05  9.27343471515411e-09  6.73130300697222e-09
 1.36839948505821e+05  9.24587321368278e-09  6.64153069755076e-09
 1.40974085922916e+05  9.21844645202791e-09  6.55419511299617e-09
 1.45108223340010e+05  9.19006964982041e-09  6.46921665564128e-09
 1.49242360757104e+05  9.16214434222996e-09  6.38655974600658e-09
 1.53376498174198e+05  9.13586280285790e-09  6.30622126506251e-09
 1.57510635591293e+05  9.10961262868041e-09  6.22821775672392e-09
 1.61644773008387e+05  9.08155829407674e-09  6.15257231618115e-09
 1.65778910425481e+05  9.05289212794413e-09  6.07930203422662e-09
 1.69913047842576e+05  9.02546620435373e-09  6.00840678057238e-09
 1.74047185259670e+05  8.99856881140720e-09  5.93985999251602e-09
 1.78181322676764e+05  8.97049668404649e-09  5.87360199313663e-09
 1.82315460093858e+05  8.94201884401781e-09  5.80953620102646e-09
 1.86449597510953e+05  8.91551720864835e-09  5.74752841828172e-09
 1.90583734928047e+05  8.89063608868225e-09  5.68740920297939e-09
 1.94717872345141e+05  8.86483325180044e-09  5.62897915511590e-09
 1.98852009762236e+05  8.83793668344101e-09  5.57201677951994e-09
 2.02986147179330e+05  8.81229251446945e-09  5.51628844370272e-09
 2.07120284596424e+05  8.78805518964864e-09  5.46155983021640e-09
 2.11254422013518e+05  8.76222087910296e-09  5.40760819777982e-09
 2.15388559430613e+05  8.73451339719596e-09  5.35423471746152e-09
 2.19522696847707e+05  8.70856683508427e-09  5.30127614192897e-09
 2.23656834264801e+05  8.68528825868143e-09  5.24861509746090e-09
 2.27790971681896e+05  8.66112420307275e-09  5.19618835827335e-09
 2.31925109098990e+05  8.63458385658460e-09  5.14399256692810e-09
 2.36059246516084e+05  8.60903888246670e-09  5.09208699758061e-09
 2.40193383933178e+05  8.58568953601451e-09  5.04059311349912e-09
 2.44327521350273e+05  8.56067492257698e-09  4.98969083845142e-09
 2.48461658767367e+05  8.53272774338521e-09  4.93961163435020e-09
 2.52595796184461e+05  8.50594013038527e-09  4.89062864591618e-09
 2.56729933601556e+05  8.48251768413835e-09  4.84304432829437e-09
 2.60864071018650e+05  8.45896170825008e-09  4.79717610753118e-09
 2.64998208435744e+05  8.43316672592631e-09  4.75334072974002e-09
 2.69132345852839e+05  8.40883276358126e-09  4.71183802733256e-09
 2.73266483269933e+05  8.38802605183119e-09  4.67293486633038e-09
 2.77400620687027e+05  8.36682947320319e-09  4.63685003591802e-09
 2.81534758104121e+05  8.34194198889164e-09  4.60374080048442e-09
 2.85668895521216e+05  8.31631350167148e-09  4.57369175782522e-09
 2.89803032938310e+05  8.29361896013729e-09  4.54670653916217e-09
 2.93937170355404e+05  8.27127306286826e-09  4.52270275296167e-09
 2.98071307772499e+05  8.24585159172948e-09  4.50151042223771e-09
 3.02205445189593e+05  8.22011307819627e-09  4.48287400199090e-09
 3.06339582606687e+05  8.19824045786757e-09  4.46645789798762e-09
 3.10473720023782e+05  8.17770955391849e-09  4.45185524853057e-09
 3.14607857440876e+05  8.15299983332707e-09  4.43859958507763e-09
 3.18741994857970e+05  8.12603393357105e-09  4.42617886254687e-09
 3.22876132275065e+05  8.10255517688386e-09  4.41405125171997e-09
 3.27010269692159e+05  8.08101097832117e-09  4.40166201866251e-09
 3.31144407109253e+05  8.05571554315770e-09  4.38846078218020e-09
 3.35278544526348e+05  8.02844129320451e-09  4.37391844091245e-09
 3.39412681943442e+05  8.00632296094850e-09  4.35754309582210e-09
 3.43546819360536e+05  7.98810968777848e-09  4.33889435897578e-09
 3.47680956777631e+05  7.96626346788089e-09  4.31759553149718e-09
 3.51815094194725e+05  7.94144074634761e-09  4.29334324702373e-09
 3.55949231611819e+05  7.92030555166579e-09  4.26591430555768e-09
 3.60083369028913e+05  7.90167345923882e-09  4.23516955933042e-09
 3.64217506446008e+05  7.87776833819816e-09  4.20105485003790e-09
 3.68351643863102e+05  7.84950733662354e-09  4.16359912856155e-09
 3.72485781280196e+05  7.82553103733878e-09  4.12291000761215e-09
 3.76619918697291e+05  7.80594470205594e-09  4.07916709902641e-09
 3.80754056114385e+05  7.78320799829567e-09  4.03261356625122e-09
 3.84888193531479e+05  7.75683860318093e-09  3.98354637574650e-09
 3.89022330948574e+05  7.73418084823797e-09  3.93230575697181e-09
 3.93156468365668e+05  7.71582618672632e-09  3.87926437914974e-09
 3.97290605782762e+05  7.69370645349648e-09  3.82481672544945e-09
 4.01424743199857e+05  7.66666699426453e-09  3.76936909428882e-09
 4.05558880616951e+05  7.64245649729753e-09  3.71333058696364e-09
 4.09693018034045e+05  7.62359982863159e-09  3.65710535554426e-09
 4.13827155451140e+05  7.60333327086355e-09  3.60108629033709e-09
 4.17961292868234e+05  7.57874572688918e-09  3.54565022789808e-09
 4.22095430285328e+05  7.55725555116603e-09  3.49115466431517e-09
 4.26229567702423e+05  7.54199083476040e-09  3.43793586961746e-09
 4.30363705119517e+05  7.52492807494796e-09  3.38630822248031e-09
 4.34497842536611e+05  7.50091244443343e-09  3.33656452377876e-09
 4.38631979953706e+05  7.47642470598814e-09  3.28897700583377e-09
 4.42766117370800e+05  7.45731545374644e-09  3.24379873306289e-09
 4.46900254787894e+05  7.43704468481954e-09  3.20126508960518e-09
 4.51034392204988e+05  7.41033342312060e-09  3.16159506952964e-09
 4.55168529622083e+05  7.38497657633681e-09  3.12499212349952e-09
 4.59302667039177e+05  7.36747812790169e-09  3.09164436928496e-09
 4.63436804456271e+05  7.35093958285718e-09  3.06172403851993e-09
 4.67570941873366e+05  7.32751919665454e-09  3.03538610423586e-09
 4.71705079290460e+05  7.30354810638644e-09  3.01276610831797e-09
 4.75839216707554e+05  7.28648506736421e-09  2.99397728042178e-09
 4.79973354124649e+05  7.26942667340155e-09  2.97910710559883e-09
 4.84107491541743e+05  7.24520430863377e-09  2.96821355293312e-09
 4.88241628958837e+05  7.22024176854975e-09  2.96132121860877e-09
 4.92375766375932e+05  7.20301590604059e-09  2.95841766161479e-09
 4.96509903793026e+05  7.18829569514747e-09  2.95945021733879e-09
 5.00644041210120e+05  7.16740112852068e-09  2.96432356326112e-09
 5.04778178627215e+05  7.14505525175146e-09  2.97289828254016e-09
 5.08912316044309e+05  7.12820420293970e-09  2.98499062718622e-09
 5.13046453461403e+05  7.11196589791669e-09  3.00037362534560e-09
 5.17180590878498e+05  7.08820302564767e-09  3.01877961026807e-09
 5.21314728295592e+05  7.06035622097143e-09  3.03990417564932e-09
 5.25448865712686e+05  7.03814717711430e-09  3.06341148735563e-09
 5.29583003129780e+05  7.01986470278961e-09  3.08894080925023e-09
 5.33717140546875e+05  6.99771910088058e-09  3.11611403497221e-09
 5.37851277963969e+05  6.97328706507790e-09  3.14454396169395e-09
 5.41985415381063e+05  6.95435820804167e-09  3.17384299914236e-09
 5.46119552798158e+05  6.94054040275004e-09  3.20363197979433e-09
 5.50253690215252e+05  6.92199609419823e-09  3.23354872557335e-09
 5.54387827632346e+05  6.89768285808967e-09  3.26325603307273e-09
 5.58521965049441e+05  6.87678383863813e-09  3.29244876286622e-09
 5.62656102466535e+05  6.86080204229296e-09  3.32085975749102e-09
 5.66790239883629e+05  6.84170144604394e-09  3.34826436504514e-09
 5.70924377300724e+05  6.81717160710088e-09  3.37448340819362e-09
 5.75058514717818e+05  6.79689038485670e-09  3.39938450837995e-09
 5.79192652134912e+05  6.78394000996082e-09  3.42288174852053e-09
 5.83326789552007e+05  6.76770285895835e-09  3.44493373063652e-09
 5.87460926969101e+05  6.74406397156282e-09  3.46554015405548e-09
 5.91595064386195e+05  6.72115457520356e-09  3.48473710158606e-09
 5.95729201803289e+05  6.70364203571061e-09  3.50259127249083e-09
 5.99863339220384e+05  6.68369649237842e-09  3.51919343982181e-09
 6.03997476637478e+05  6.65704514940635e-09  3.53465143413107e-09
 6.08131614054572e+05  6.63365504403319e-09  3.54908296490135e-09
 6.12265751471667e+05  6.61877134031824e-09  3.56260858525305e-09
 6.16399888888761e+05  6.60479728360445e-09  3.57534508535445e-09
 6.20534026305855e+05  6.58552755444943e-09  3.58739956700199e-09
 6.24668163722950e+05  6.56635011686145e-09  3.59886440817900e-09
 6.28802301140044e+05  6.55341975630362e-09  3.60981327466961e-09
 6.32936438557138e+05  6.53971455221422e-09  3.62029827895421e-09
 6.37070575974233e+05  6.51853155344048e-09  3.63034832776617e-09
 6.41204713391327e+05  6.49538131944392e-09  3.63996864195324e-09
 6.45338850808421e+05  6.47801290436364e-09  3.64914137858890e-09
 6.49472988225516e+05  6.46418331236646e-09  3.65782723821315e-09
 6.53607125642610e+05  6.44526567121228e-09  3.66596790177798e-09
 6.57741263059704e+05  6.42372618608425e-09  3.67348911389570e-09
 6.61875400476799e+05  6.40782168872164e-09  3.68030421227139e-09
 6.66009537893893e+05  6.39452574987575e-09  3.68631789802390e-09
 6.70143675310987e+05  6.37459997205870e-09  3.69143004758617e-09
 6.74277812728081e+05  6.34823973010180e-09  3.69553938305364e-09
 6.78411950145176e+05  6.32701005945073e-09  3.69854684271590e-09
 6.82546087562270e+05  6.31261209428498e-09  3.70035852514481e-09
 6.86680224979364e+05  6.29438421358038e-09  3.70088811640628e-09
 6.90814362396459e+05  6.27217235596338e-09  3.70005874834923e-09
 6.94948499813553e+05  6.25619046315054e-09  3.69780427412055e-09
 6.99082637230647e+05  6.24797895310295e-09  3.69406998281008e-09
 7.03216774647742e+05  6.23500306263695e-09  3.68881280644195e-09
 7.07350912064836e+05  6.21277777877767e-09  3.68200109776388e-09
 7.11485049481930e+05  6.19327428211682e-09  3.67361407524701e-09
 7.15619186899025e+05  6.17949242853970e-09  3.66364104170632e-09
 7.19753324316119e+05  6.16113120983822e-09  3.65208048480845e-09
 7.23887461733213e+05  6.13504390824221e-09  3.63893916180017e-09
 7.28021599150308e+05  6.11269547240271e-09  3.62423125787911e-09
 7.32155736567402e+05  6.10051167121410e-09  3.60797768897254e-09
 7.36289873984496e+05  6.08645585479800e-09  3.59020559683848e-09
 7.40424011401591e+05  6.06379340348269e-09  3.57094805912342e-09
 7.44558148818685e+05  6.04192213403519e-09  3.55024401117036e-09
 7.48692286235779e+05  6.02722203719166e-09  3.52813835181530e-09
 7.52826423652873e+05  6.01166045210101e-09  3.50468218385875e-09
 7.56960561069968e+05  5.98694468607506e-09  3.47993312282345e-09
 7.61094698487062e+05  5.96324547163634e-09  3.45395559616320e-09
 7.65228835904156e+05  5.95090924135394e-09  3.42682105003053e-09
 7.69362973321251e+05  5.94149036526583e-09  3.39860798236476e-09
 7.73497110738345e+05  5.92455951256673e-09  3.36940172931112e-09
 7.77631248155439e+05  5.90529843214071e-09  3.33929394626537e-09
 7.81765385572534e+05  5.89491491894702e-09  3.30838174421352e-09
 7.85899522989628e+05  5.88597672543244e-09  3.27676646521905e-09
 7.90033660406722e+05  5.86444118985602e-09  3.24455210637492e-09
 7.94167797823817e+05  5.83756815636340e-09  3.21184342760401e-09
 7.98301935240911e+05  5.81976389146959e-09  3.17874380363275e-09
 8.02436072658005e+05  5.80785674160471e-09  3.14535290261182e-09
 8.06570210075100e+05  5.78784749042787e-09  3.11176429171169e-09
 8.10704347492194e+05  5.76377005705807e-09  3.07806308232823e-09
 8.14838484909288e+05  5.75150936810123e-09  3.04432373337814e-09
 8.18972622326383e+05  5.74517911547613e-09  3.01060813001332e-09
 8.23106759743477e+05  5.72832227573266e-09  2.97696404682706e-09
 8.27240897160571e+05  5.70369492316594e-09  2.94342408958227e-09
 8.31375034577666e+05  5.68761805151385e-09  2.91000518839191e-09
