#time(au), s(t), s(t) without exp(iwt)
 0.00000000000000e+01  1.96784541783169e-17  1.96784541783169e-17
 4.13413741709430e+03 -2.49492029390073e-16 -1.53781863305075e-16
 8.26827483418859e+03 -7.30776172890342e-16 -6.43736445048594e-16
 1.24024122512829e+04 -1.31143432398139e-15 -1.54734813134274e-15
 1.65365496683772e+04 -1.93459933128201e-15 -2.85742626134176e-15
 2.06706870854715e+04 -2.57227043648443e-15 -4.53193839479304e-15
 2.48048245025658e+04 -3.21120456754735e-15 -6.51993330877787e-15
 2.89389619196601e+04 -3.84558766473029e-15 -8.77010258260342e-15
 3.30730993367544e+04 -4.47324630368626e-15 -1.12329468545361e-14
 3.72072367538487e+04 -5.09371168182169e-15 -1.38610427597883e-14
 4.13413741709430e+04 -5.70724923887925e-15 -1.66091029975217e-14
 4.54755115880372e+04 -6.31438717407862e-15 -1.94343282770710e-14
 4.96096490051315e+04 -6.91569889896415e-15 -2.22970718357160e-14
 5.37437864222258e+04 -7.51171182310381e-15 -2.51616747424775e-14
 5.78779238393201e+04 -8.10287681999961e-15 -2.79973019687560e-14
 6.20120612564144e+04 -8.68956516635765e-15 -3.07786335269690e-14
 6.61461986735087e+04 -9.27207658576663e-15 -3.34863061735727e-14
 7.02803360906030e+04 -9.85065067381137e-15 -3.61070444105653e-14
 7.44144735076973e+04 -1.04254782636962e-14 -3.86334590114118e-14
 7.85486109247916e+04 -1.09967114341724e-14 -4.10635252425267e-14
 8.26827483418859e+04 -1.15644717970385e-14 -4.33997806257113e-14
 8.68168857589802e+04 -1.21288571465353e-14 -4.56483034640689e-14
 9.09510231760745e+04 -1.26899467087669e-14 -4.78175482683883e-14
 9.50851605931688e+04 -1.32478052325912e-14 -4.99171226448711e-14
 9.92192980102631e+04 -1.38024861709926e-14 -5.19565923165671e-14
 1.03353435427357e+05 -1.43540341413093e-14 -5.39443969298475e-14
 1.07487572844452e+05 -1.49024868436757e-14 -5.58869497794696e-14
 1.11621710261546e+05 -1.54478765394004e-14 -5.77879802165420e-14
 1.15755847678640e+05 -1.59902312043675e-14 -5.96481594818399e-14
 1.19889985095735e+05 -1.65295754338089e-14 -6.14650300982130e-14
 1.24024122512829e+05 -1.70659311447610e-14 -6.32332372020407e-14
 1.28158259929923e+05 -1.75993181297972e-14 -6.49450387348786e-14
 1.32292397347018e+05 -1.81297544875869e-14 -6.65910515820193e-14
 1.36426534764112e+05 -1.86572569698767e-14 -6.81611739042805e-14
 1.40560672181206e+05 -1.91818412482141e-14 -6.96456110586666e-14
 1.44694809598300e+05 -1.97035221313770e-14 -7.10359246206753e-14
 1.48828947015395e+05 -2.02223137313056e-14 -7.23260214930236e-14
 1.52963084432489e+05 -2.07382296010999e-14 -7.35130032419476e-14
 1.57097221849583e+05 -2.12512828393236e-14 -7.45978043545755e-14
 1.61231359266678e+05 -2.17614861728850e-14 -7.55855616611352e-14
 1.65365496683772e+05 -2.22688520307764e-14 -7.64856748135046e-14
 1.69499634100866e+05 -2.27733925907786e-14 -7.73115383508103e-14
 1.73633771517960e+05 -2.32751198311424e-14 -7.80799483450113e-14
 1.77767908935055e+05 -2.37740455533321e-14 -7.88102092625171e-14
 1.81902046352149e+05 -2.42701814166541e-14 -7.95229883332988e-14
 1.86036183769243e+05 -2.47635389594898e-14 -8.02389836889767e-14
 1.90170321186338e+05 -2.52541296132165e-14 -8.09774877976712e-14
 1.94304458603432e+05 -2.57419647189158e-14 -8.17549381340812e-14
 1.98438596020526e+05 -2.62270555354591e-14 -8.25835517939643e-14
 2.02572733437620e+05 -2.67094132510152e-14 -8.34701395849219e-14
 2.06706870854715e+05 -2.71890489885706e-14 -8.44151878113958e-14
 2.10841008271809e+05 -2.76659738115160e-14 -8.54122829500246e-14
 2.14975145688903e+05 -2.81401987278421e-14 -8.64479362617389e-14
 2.19109283105998e+05 -2.86117346940050e-14 -8.75018431693864e-14
 2.23243420523092e+05 -2.90805926184128e-14 -8.85475871402235e-14
 2.27377557940186e+05 -2.95467833617428e-14 -8.95537713463065e-14
 2.31511695357280e+05 -3.00103177398084e-14 -9.04855350612104e-14
 2.35645832774375e+05 -3.04712065255741e-14 -9.13063871594664e-14
 2.39779970191469e+05 -3.09294604514583e-14 -9.19802677243137e-14
 2.43914107608563e+05 -3.13850902059748e-14 -9.24737319508564e-14
 2.48048245025658e+05 -3.18381064393396e-14 -9.27581393713546e-14
 2.52182382442752e+05 -3.22885197613699e-14 -9.28117266291329e-14
 2.56316519859846e+05 -3.27363407427472e-14 -9.26214440814203e-14
 2.60450657276940e+05 -3.31815799149727e-14 -9.21844453693477e-14
 2.64584794694035e+05 -3.36242477720943e-14 -9.15091344101131e-14
 2.68718932111129e+05 -3.40643547708281e-14 -9.06156952831100e-14
 2.72853069528223e+05 -3.45019113264613e-14 -8.95360561040779e-14
 2.76987206945318e+05 -3.49369278207271e-14 -8.83132668832125e-14
 2.81121344362412e+05 -3.53694145967409e-14 -8.70003018627095e-14
 2.85255481779506e+05 -3.57993819592132e-14 -8.56583274340329e-14
 2.89389619196601e+05 -3.62268401771674e-14 -8.43545055696118e-14
 2.93523756613695e+05 -3.66517994837156e-14 -8.31594282461122e-14
 2.97657894030789e+05 -3.70742700732212e-14 -8.21442991376102e-14
 3.01792031447884e+05 -3.74942621059643e-14 -8.13779937224145e-14
 3.05926168864978e+05 -3.79117857038465e-14 -8.09241369671232e-14
 3.10060306282072e+05 -3.83268509532542e-14 -8.08383385469237e-14
 3.14194443699167e+05 -3.87394679047977e-14 -8.11657189174099e-14
 3.18328581116261e+05 -3.91496465741315e-14 -8.19388459034580e-14
 3.22462718533355e+05 -3.95573969388748e-14 -8.31761814643183e-14
 3.26596855950449e+05 -3.99627289429220e-14 -8.48811130608871e-14
 3.30730993367544e+05 -4.03656524926679e-14 -8.70416148636870e-14
 3.34865130784638e+05 -4.07661774621269e-14 -8.96305526181824e-14
 3.38999268201732e+05 -4.11643136877643e-14 -9.26066138643778e-14
 3.43133405618827e+05 -4.15600709717750e-14 -9.59158143024322e-14
 3.47267543035921e+05 -4.19534590788530e-14 -9.94935029186695e-14
 3.51401680453015e+05 -4.23444877438146e-14 -1.03266764681178e-13
 3.55535817870110e+05 -4.27331666600982e-14 -1.07157101297589e-13
 3.59669955287204e+05 -4.31195054921873e-14 -1.11083258879545e-13
 3.63804092704298e+05 -4.35035138676722e-14 -1.14964066603403e-13
 3.67938230121393e+05 -4.38852013793445e-14 -1.18721153208259e-13
 3.72072367538487e+05 -4.42645775861056e-14 -1.22281417803724e-13
 3.76206504955581e+05 -4.46416520120247e-14 -1.25579147627182e-13
 3.80340642372676e+05 -4.50164341477621e-14 -1.28557696979905e-13
 3.84474779789770e+05 -4.53889334508447e-14 -1.31170667363039e-13
 3.88608917206864e+05 -4.57591593417733e-14 -1.33382557309734e-13
 3.92743054623959e+05 -4.61271212108298e-14 -1.35168879976718e-13
 3.96877192041053e+05 -4.64928284130916e-14 -1.36515775443565e-13
 4.01011329458147e+05 -4.68562902689886e-14 -1.37419171407054e-13
 4.05145466875241e+05 -4.72175160676127e-14 -1.37883568907629e-13
 4.09279604292336e+05 -4.75765150637065e-14 -1.37920547730261e-13
 4.13413741709430e+05 -4.79332964776451e-14 -1.37547098242783e-13
 4.17547879126524e+05 -4.82878694983229e-14 -1.36783892004402e-13
 4.21682016543619e+05 -4.86402432811683e-14 -1.35653602321915e-13
 4.25816153960713e+05 -4.89904269494261e-14 -1.34179378240499e-13
 4.29950291377807e+05 -4.93384295909956e-14 -1.32383561732465e-13
 4.34084428794902e+05 -4.96842602635585e-14 -1.30286719054252e-13
 4.38218566211996e+05 -5.00279279914399e-14 -1.27907034464161e-13
 4.42352703629090e+05 -5.03694417666521e-14 -1.25260089285877e-13
 4.46486841046185e+05 -5.07088105496387e-14 -1.22359023037733e-13
 4.50620978463279e+05 -5.10460432658921e-14 -1.19215047734630e-13
 4.54755115880373e+05 -5.13811488124477e-14 -1.15838262990965e-13
 4.58889253297468e+05 -5.17141360511740e-14 -1.12238699573708e-13
 4.63023390714562e+05 -5.20450138142057e-14 -1.08427503870663e-13
 4.67157528131656e+05 -5.23737908998576e-14 -1.04418166066832e-13
 4.71291665548751e+05 -5.27004760779225e-14 -1.00227691416977e-13
 4.75425802965845e+05 -5.30250780831058e-14 -9.58776168543449e-14
 4.79559940382939e+05 -5.33476056199595e-14 -9.13947843017840e-14
 4.83694077800033e+05 -5.36680673605667e-14 -8.68117966941325e-14
 4.87828215217128e+05 -5.39864719482981e-14 -8.21671021793950e-14
 4.91962352634222e+05 -5.43028279923253e-14 -7.75046749316822e-14
 4.96096490051316e+05 -5.46171440753608e-14 -7.28732862591065e-14
 5.00230627468411e+05 -5.49294287435754e-14 -6.83253855379008e-14
 5.04364764885505e+05 -5.52396905143187e-14 -6.39156356488244e-14
 5.08498902302599e+05 -5.55479378760254e-14 -5.96991702758486e-14
 5.12633039719694e+05 -5.58541792843204e-14 -5.57296595218404e-14
 5.16767177136788e+05 -5.61584231657084e-14 -5.20572845412847e-14
 5.20901314553882e+05 -5.64606779151220e-14 -4.87267304021587e-14
 5.25035451970977e+05 -5.67609518975852e-14 -4.57753087345683e-14
 5.29169589388071e+05 -5.70592534476977e-14 -4.32313176010562e-14
 5.33303726805165e+05 -5.73555908698637e-14 -4.11127357370484e-14
 5.37437864222260e+05 -5.76499724382112e-14 -3.94263323124459e-14
 5.41572001639354e+05 -5.79424063980335e-14 -3.81672526105906e-14
 5.45706139056448e+05 -5.82329009640035e-14 -3.73191155724427e-14
 5.49840276473543e+05 -5.85214643193872e-14 -3.68546324620578e-14
 5.53974413890637e+05 -5.88081046217217e-14 -3.67367283818406e-14
 5.58108551307731e+05 -5.90928299961032e-14 -3.69201215332578e-14
 5.62242688724826e+05 -5.93756485392937e-14 -3.73532905920118e-14
 5.66376826141920e+05 -5.96565683173091e-14 -3.79807395055097e-14
 5.70510963559014e+05 -5.99355973675340e-14 -3.87454527927599e-14
 5.74645100976108e+05 -6.02127436997294e-14 -3.95914237814173e-14
 5.78779238393203e+05 -6.04880152919380e-14 -4.04661338181729e-14
 5.82913375810297e+05 -6.07614200934243e-14 -4.13228625390621e-14
 5.87047513227391e+05 -6.10329660282364e-14 -4.21227176411777e-14
 5.91181650644486e+05 -6.13026609882423e-14 -4.28362868125017e-14
 5.95315788061580e+05 -6.15705128385183e-14 -4.34448337794408e-14
 5.99449925478674e+05 -6.18365294133595e-14 -4.39409836509271e-14
 6.03584062895769e+05 -6.21007185203466e-14 -4.43288687409133e-14
 6.07718200312863e+05 -6.23630879379285e-14 -4.46237332715680e-14
 6.11852337729957e+05 -6.26236454165515e-14 -4.48510224596217e-14
 6.15986475147052e+05 -6.28823986793741e-14 -4.50450068891102e-14
 6.20120612564146e+05 -6.31393554189908e-14 -4.52470155364105e-14
 6.24254749981240e+05 -6.33945233028648e-14 -4.55033691083241e-14
 6.28388887398335e+05 -6.36479099671715e-14 -4.58631185678648e-14
 6.32523024815429e+05 -6.38995230256063e-14 -4.63757012865437e-14
 6.36657162232523e+05 -6.41493700580626e-14 -4.70886287205413e-14
 6.40791299649618e+05 -6.43974586188892e-14 -4.80453151369537e-14
 6.44925437066712e+05 -6.46437962375973e-14 -4.92831467542483e-14
 6.49059574483806e+05 -6.48883904123095e-14 -5.08318756736874e-14
 6.53193711900900e+05 -6.51312486180560e-14 -5.27124039117472e-14
 6.57327849317995e+05 -6.53723782981597e-14 -5.49360008445344e-14
 6.61461986735089e+05 -6.56117868716639e-14 -5.75039738229718e-14
 6.65596124152183e+05 -6.58494817304363e-14 -6.04077877880113e-14
 6.69730261569278e+05 -6.60854702377261e-14 -6.36296068852100e-14
 6.73864398986372e+05 -6.63197597314630e-14 -6.71432104906728e-14
 6.77998536403466e+05 -6.65523575217715e-14 -7.09152188057725e-14
 6.82132673820561e+05 -6.67832708911963e-14 -7.49065501832284e-14
 6.86266811237655e+05 -6.70125070985066e-14 -7.90740241406711e-14
 6.90400948654749e+05 -6.72400733736410e-14 -8.33720209453289e-14
 6.94535086071844e+05 -6.74659769208906e-14 -8.77541107821204e-14
 6.98669223488938e+05 -6.76902249170153e-14 -9.21745724273963e-14
 7.02803360906032e+05 -6.79128245146122e-14 -9.65897326346678e-14
 7.06937498323127e+05 -6.81337828385147e-14 -1.00959072158371e-13
 7.11071635740221e+05 -6.83531069866224e-14 -1.05246061626633e-13
 7.15205773157315e+05 -6.85708040349482e-14 -1.09418709102349e-13
 7.19339910574410e+05 -6.87868810286429e-14 -1.13449820040324e-13
 7.23474047991504e+05 -6.90013449908085e-14 -1.17316988329446e-13
 7.27608185408598e+05 -6.92142029156236e-14 -1.21002352974948e-13
 7.31742322825692e+05 -6.94254617742850e-14 -1.24492168033222e-13
 7.35876460242787e+05 -6.96351285108445e-14 -1.27776242666149e-13
 7.40010597659881e+05 -6.98432100439279e-14 -1.30847313377590e-13
 7.44144735076975e+05 -7.00497132673534e-14 -1.33700411223492e-13
 7.48278872494070e+05 -7.02546450501923e-14 -1.36332283204631e-13
 7.52413009911164e+05 -7.04580122341269e-14 -1.38740919432062e-13
 7.56547147328258e+05 -7.06598216384565e-14 -1.40925226593494e-13
 7.60681284745353e+05 -7.08600800559492e-14 -1.42884874463612e-13
 7.64815422162447e+05 -7.10587942535062e-14 -1.44620326729454e-13
 7.68949559579541e+05 -7.12559709755071e-14 -1.46133051198772e-13
 7.73083696996636e+05 -7.14516169386111e-14 -1.47425888610329e-13
 7.77217834413730e+05 -7.16457388380937e-14 -1.48503544937767e-13
 7.81351971830824e+05 -7.18383433406693e-14 -1.49373160030360e-13
 7.85486109247919e+05 -7.20294370926744e-14 -1.50044896721961e-13
 7.89620246665013e+05 -7.22190267121704e-14 -1.50532489520213e-13
 7.93754384082107e+05 -7.24071187956362e-14 -1.50853691304281e-13
 7.97888521499202e+05 -7.25937199147047e-14 -1.51030559951528e-13
 8.02022658916296e+05 -7.27788366151137e-14 -1.51089534577899e-13
 8.06156796333390e+05 -7.29624754202579e-14 -1.51061262534857e-13
 8.10290933750484e+05 -7.31446428294609e-14 -1.50980152857320e-13
 8.14425071167579e+05 -7.33253453177789e-14 -1.50883648708514e-13
 8.18559208584673e+05 -7.35045893345486e-14 -1.50811229423648e-13
 8.22693346001767e+05 -7.36823813072454e-14 -1.50803171032332e-13
 8.26827483418862e+05 -7.38587276410249e-14 -1.50899111410510e-13
 8.30961620835956e+05 -7.40336347124817e-14 -1.51136481522675e-13
 8.35095758253050e+05 -7.42071088800131e-14 -1.51548876511764e-13
 8.39229895670145e+05 -7.43791564761134e-14 -1.52164448812097e-13
 8.43364033087239e+05 -7.45497838083953e-14 -1.53004409574870e-13
 8.47498170504333e+05 -7.47189971651752e-14 -1.54081723921182e-13
 8.51632307921428e+05 -7.48868028064950e-14 -1.55400079908095e-13
 8.55766445338522e+05 -7.50532069737843e-14 -1.56953200841012e-13
 8.59900582755616e+05 -7.52182158829017e-14 -1.58724555918505e-13
 8.64034720172711e+05 -7.53818357260458e-14 -1.60687506184320e-13
 8.68168857589805e+05 -7.55440726758267e-14 -1.62805901958041e-13
 8.72302995006899e+05 -7.57049328759317e-14 -1.65035125625172e-13
 8.76437132423994e+05 -7.58644224545846e-14 -1.67323550999820e-13
 8.80571269841088e+05 -7.60225475134509e-14 -1.69614368511609e-13
 8.84705407258182e+05 -7.61793141311222e-14 -1.71847705678296e-13
 8.88839544675276e+05 -7.63347283647883e-14 -1.73962955467344e-13
 8.92973682092371e+05 -7.64887962486389e-14 -1.75901212418651e-13
 8.97107819509465e+05 -7.66415237929217e-14 -1.77607708428018e-13
 9.01241956926559e+05 -7.67929169899147e-14 -1.79034137358172e-13
 9.05376094343654e+05 -7.69429818059766e-14 -1.80140760380785e-13
 9.09510231760748e+05 -7.70917241870277e-14 -1.80898192172473e-13
 9.13644369177842e+05 -7.72391500556098e-14 -1.81288781239328e-13
 9.17778506594937e+05 -7.73852653123985e-14 -1.81307515372627e-13
 9.21912644012031e+05 -7.75300758363919e-14 -1.80962404423543e-13
 9.26046781429125e+05 -7.76735874866329e-14 -1.80274316422849e-13
 9.30180918846220e+05 -7.78158060975432e-14 -1.79276268178571e-13
 9.34315056263314e+05 -7.79567374823759e-14 -1.78012196792588e-13
 9.38449193680408e+05 -7.80963874333376e-14 -1.76535262616093e-13
 9.42583331097503e+05 -7.82347617221481e-14 -1.74905755946277e-13
 9.46717468514597e+05 -7.83718660975742e-14 -1.73188698097644e-13
 9.50851605931691e+05 -7.85077062865881e-14 -1.71451241480417e-13
 9.54985743348786e+05 -7.86422879934805e-14 -1.69759982272380e-13
 9.59119880765880e+05 -7.87756169074626e-14 -1.68178302800413e-13
 9.63254018182974e+05 -7.89076986901524e-14 -1.66763858613187e-13
 9.67388155600069e+05 -7.90385389842260e-14 -1.65566317746981e-13
 9.71522293017163e+05 -7.91681434101287e-14 -1.64625446954436e-13
 9.75656430434257e+05 -7.92965175697567e-14 -1.63969622729369e-13
 9.79790567851351e+05 -7.94236670421726e-14 -1.63614824328828e-13
 9.83924705268446e+05 -7.95495973868135e-14 -1.63564143044394e-13
 9.88058842685540e+05 -7.96743141407170e-14 -1.63807817569464e-13
 9.92192980102634e+05 -7.97978228215090e-14 -1.64323780935219e-13
 9.96327117519729e+05 -7.99201289263122e-14 -1.65078681151396e-13
 1.00046125493682e+06 -8.00412379314220e-14 -1.66029316663250e-13
 1.00459539235392e+06 -8.01611552917630e-14 -1.67124409967032e-13
 1.00872952977101e+06 -8.02798864413397e-14 -1.68306629084971e-13
 1.01286366718811e+06 -8.03974367974468e-14 -1.69514757669091e-13
 1.01699780460520e+06 -8.05138117531735e-14 -1.70685910681425e-13
 1.02113194202229e+06 -8.06290166835787e-14 -1.71757694025968e-13
 1.02526607943939e+06 -8.07430569424273e-14 -1.72670212878921e-13
 1.02940021685648e+06 -8.08559378636844e-14 -1.73367844573929e-13
 1.03353435427358e+06 -8.09676647607829e-14 -1.73800706924379e-13
 1.03766849169067e+06 -8.10782429275200e-14 -1.73925771042301e-13
 1.04180262910777e+06 -8.11876776406170e-14 -1.73707588059688e-13
 1.04593676652486e+06 -8.12959741521554e-14 -1.73118620516298e-13
 1.05007090394195e+06 -8.14031376979880e-14 -1.72139190547806e-13
 1.05420504135905e+06 -8.15091734925496e-14 -1.70757077066385e-13
 1.05833917877614e+06 -8.16140867299687e-14 -1.68966812107874e-13
 1.06247331619324e+06 -8.17178825881490e-14 -1.66768741251451e-13
 1.06660745361033e+06 -8.18205662239641e-14 -1.64167923925016e-13
 1.07074159102743e+06 -8.19221427727935e-14 -1.61172955952262e-13
 1.07487572844452e+06 -8.20226173511023e-14 -1.57794798459049e-13
 1.07900986586161e+06 -8.21219950602610e-14 -1.54045694346290e-13
 1.08314400327871e+06 -8.22202809773346e-14 -1.49938246001267e-13
 1.08727814069580e+06 -8.23174801625288e-14 -1.45484716384782e-13
 1.09141227811290e+06 -8.24135976579008e-14 -1.40696600454439e-13
 1.09554641552999e+06 -8.25086384831150e-14 -1.35584496220721e-13
 1.09968055294709e+06 -8.26026076433835e-14 -1.30158285282297e-13
 1.10381469036418e+06 -8.26955101212739e-14 -1.24427612587789e-13
 1.10794882778128e+06 -8.27873508827350e-14 -1.18402635580521e-13
 1.11208296519837e+06 -8.28781348751420e-14 -1.12094994670234e-13
 1.11621710261546e+06 -8.29678670254268e-14 -1.05518941317333e-13
 1.12035124003256e+06 -8.30565522422713e-14 -9.86925476426579e-14
 1.12448537744965e+06 -8.31441954179461e-14 -9.16389131237935e-14
 1.12861951486675e+06 -8.32308014231179e-14 -8.43872800942985e-14
 1.13275365228384e+06 -8.33163751124682e-14 -7.69739707390212e-14
 1.13688778970094e+06 -8.34009213210414e-14 -6.94430639572114e-14
 1.14102192711803e+06 -8.34844448654337e-14 -6.18467408523762e-14
 1.14515606453512e+06 -8.35669505440784e-14 -5.42452420474958e-14
 1.14929020195222e+06 -8.36484431397976e-14 -4.67063979857552e-14
 1.15342433936931e+06 -8.37289274128992e-14 -3.93047139901329e-14
 1.15755847678641e+06 -8.38084081100658e-14 -3.21200141565639e-14
 1.16169261420350e+06 -8.38868899551805e-14 -2.52356709897439e-14
 1.16582675162060e+06 -8.39643776576604e-14 -1.87364701567768e-14
 1.16996088903769e+06 -8.40408759093338e-14 -1.27061803909113e-14
 1.17409502645478e+06 -8.41163893815603e-14 -7.22491678010162e-15
 1.17822916387188e+06 -8.41909227296492e-14 -2.36640014231090e-15
 1.18236330128897e+06 -8.42644805926076e-14  1.80477464901736e-15
 1.18649743870607e+06 -8.43370675879655e-14  5.23574331756599e-15
 1.19063157612316e+06 -8.44086883190692e-14  7.88773181078326e-15
 1.19476571354026e+06 -8.44793473700539e-14  9.73805846352504e-15
 1.19889985095735e+06 -8.45490493103153e-14  1.07816770162788e-14
 1.20303398837444e+06 -8.46177986887004e-14  1.10321745630152e-14
 1.20716812579154e+06 -8.46856000350694e-14  1.05221584705495e-14
 1.21130226320863e+06 -8.47524578677696e-14  9.30298986370527e-15
 1.21543640062573e+06 -8.48183766841727e-14  7.44384727204400e-15
 1.21957053804282e+06 -8.48833609657858e-14  5.03013137706948e-15
 1.22370467545992e+06 -8.49474151755490e-14  2.16124946620688e-15
 1.22783881287701e+06 -8.50105437608249e-14 -1.05215527074325e-15
 1.23197295029410e+06 -8.50727511518275e-14 -4.49144008358177e-15
 1.23610708771120e+06 -8.51340417603796e-14 -8.03355405809124e-15
 1.24024122512829e+06 -8.51944199838857e-14 -1.15548572264359e-14
 1.24437536254539e+06 -8.52538902015053e-14 -1.49350283352404e-14
