#time(au), s(t), s(t) without exp(iwt)
 0.00000000000000e+01 -9.90889408962735e-11 -9.90889408962735e-11
 4.13413741709430e+03 -9.89871501649443e-11 -9.90240575583535e-11
 8.26827483418859e+03 -9.88028001814798e-11 -9.88470171615911e-11
 1.24024122512829e+04 -9.85755142211948e-11 -9.85172359270722e-11
 1.65365496683772e+04 -9.83265762880848e-11 -9.80296293825246e-11
 2.06706870854715e+04 -9.80673723818620e-11 -9.73926675755991e-11
 2.48048245025658e+04 -9.78039333123414e-11 -9.66195113138291e-11
 2.89389619196601e+04 -9.75393880765063e-11 -9.57246502581038e-11
 3.30730993367544e+04 -9.72752982889868e-11 -9.47227733277484e-11
 3.72072367538487e+04 -9.70123869636233e-11 -9.36284624094450e-11
 4.13413741709430e+04 -9.67509368171616e-11 -9.24561230068141e-11
 4.54755115880372e+04 -9.64910072119680e-11 -9.12199281845923e-11
 4.96096490051315e+04 -9.62325512494250e-11 -8.99337088323442e-11
 5.37437864222258e+04 -9.59754778752910e-11 -8.86107875403349e-11
 5.78779238393201e+04 -9.57196838089668e-11 -8.72637765918933e-11
 6.20120612564144e+04 -9.54650690572301e-11 -8.59043659557719e-11
 6.61461986735087e+04 -9.52115436438734e-11 -8.45431251465635e-11
 7.02803360906030e+04 -9.49590297721915e-11 -8.31893380426788e-11
 7.44144735076973e+04 -9.47074617304912e-11 -8.18508842265562e-11
 7.85486109247916e+04 -9.44567847863543e-11 -8.05341749989441e-11
 8.26827483418859e+04 -9.42069537233763e-11 -7.92441472765749e-11
 8.68168857589802e+04 -9.39579313477945e-11 -7.79843142609452e-11
 9.09510231760745e+04 -9.37096871152833e-11 -7.67568681332884e-11
 9.50851605931688e+04 -9.34621959345413e-11 -7.55628271225105e-11
 9.92192980102631e+04 -9.32154371569420e-11 -7.44022171277481e-11
 1.03353435427357e+05 -9.29693937393635e-11 -7.32742766603225e-11
 1.07487572844452e+05 -9.27240515586242e-11 -7.21776731897599e-11
 1.11621710261546e+05 -9.24793988540811e-11 -7.11107190042138e-11
 1.15755847678640e+05 -9.22354257763224e-11 -7.00715753739415e-11
 1.19889985095735e+05 -9.19921240225614e-11 -6.90584350621911e-11
 1.24024122512829e+05 -9.17494865423380e-11 -6.80696749645802e-11
 1.28158259929923e+05 -9.15075072999751e-11 -6.71039727619275e-11
 1.32292397347018e+05 -9.12661810827593e-11 -6.61603838157198e-11
 1.36426534764112e+05 -9.10255033459466e-11 -6.52383769859053e-11
 1.40560672181206e+05 -9.07854700873827e-11 -6.43378304726224e-11
 1.44694809598300e+05 -9.05460777460297e-11 -6.34589910479676e-11
 1.48828947015395e+05 -9.03073231197473e-11 -6.26024020335683e-11
 1.52963084432489e+05 -9.00692032986341e-11 -6.17688069955677e-11
 1.57097221849583e+05 -8.98317156109609e-11 -6.09590372935588e-11
 1.61231359266678e+05 -8.95948575792796e-11 -6.01738922830898e-11
 1.65365496683772e+05 -8.93586268847854e-11 -5.94140211097985e-11
 1.69499634100866e+05 -8.91230213383726e-11 -5.86798146527767e-11
 1.73633771517960e+05 -8.88880388571178e-11 -5.79713153090588e-11
 1.77767908935055e+05 -8.86536774451747e-11 -5.72881510193470e-11
 1.81902046352149e+05 -8.84199351782398e-11 -5.66294982981847e-11
 1.86036183769243e+05 -8.81868101909364e-11 -5.59940771479161e-11
 1.90170321186338e+05 -8.79543006665554e-11 -5.53801787145811e-11
 1.94304458603432e+05 -8.77224048287186e-11 -5.47857245005906e-11
 1.98438596020526e+05 -8.74911209345993e-11 -5.42083539979961e-11
 2.02572733437620e+05 -8.72604472694213e-11 -5.36455358548738e-11
 2.06706870854715e+05 -8.70303821419738e-11 -5.30946962306287e-11
 2.10841008271809e+05 -8.68009238809785e-11 -5.25533569114884e-11
 2.14975145688903e+05 -8.65720708321229e-11 -5.20192751008806e-11
 2.19109283105998e+05 -8.63438213556650e-11 -5.14905766031398e-11
 2.23243420523092e+05 -8.61161738244672e-11 -5.09658743893531e-11
 2.27377557940186e+05 -8.58891266224125e-11 -5.04443652527544e-11
 2.31511695357280e+05 -8.56626781431103e-11 -4.99258983848569e-11
 2.35645832774375e+05 -8.54368267888396e-11 -4.94110111686812e-11
 2.39779970191469e+05 -8.52115709696912e-11 -4.89009292101547e-11
 2.43914107608563e+05 -8.49869091028732e-11 -4.83975295184569e-11
 2.48048245025658e+05 -8.47628396121456e-11 -4.79032676982942e-11
 2.52182382442752e+05 -8.45393609273473e-11 -4.74210719273220e-11
 2.56316519859846e+05 -8.43164714840214e-11 -4.69542082590257e-11
 2.60450657276940e+05 -8.40941697231102e-11 -4.65061233229068e-11
 2.64584794694035e+05 -8.38724540906953e-11 -4.60802717109900e-11
 2.68718932111129e+05 -8.36513230377906e-11 -4.56799361812352e-11
 2.72853069528223e+05 -8.34307750201768e-11 -4.53080492334167e-11
 2.76987206945318e+05 -8.32108084982568e-11 -4.49670246030889e-11
 2.81121344362412e+05 -8.29914219369391e-11 -4.46586067788692e-11
 2.85255481779506e+05 -8.27726138055472e-11 -4.43837458042770e-11
 2.89389619196601e+05 -8.25543825777309e-11 -4.41425034252356e-11
 2.93523756613695e+05 -8.23367267314033e-11 -4.39339951534528e-11
 2.97657894030789e+05 -8.21196447486898e-11 -4.37563711132539e-11
 3.01792031447884e+05 -8.19031351158731e-11 -4.36068367142085e-11
 3.05926168864978e+05 -8.16871963233548e-11 -4.34817123376409e-11
 3.10060306282072e+05 -8.14718268656184e-11 -4.33765294353661e-11
 3.14194443699167e+05 -8.12570252412055e-11 -4.32861588022402e-11
 3.18328581116261e+05 -8.10427899526833e-11 -4.32049653791640e-11
 3.22462718533355e+05 -8.08291195066224e-11 -4.31269828354497e-11
 3.26596855950449e+05 -8.06160124135741e-11 -4.30461004175861e-11
 3.30730993367544e+05 -8.04034671880594e-11 -4.29562541653520e-11
 3.34865130784638e+05 -8.01914823485387e-11 -4.28516145958480e-11
 3.38999268201732e+05 -7.99800564174085e-11 -4.27267633313887e-11
 3.43133405618827e+05 -7.97691879209737e-11 -4.25768518690097e-11
 3.47267543035921e+05 -7.95588753894484e-11 -4.23977367118620e-11
 3.51401680453015e+05 -7.93491173569298e-11 -4.21860863453465e-11
 3.55535817870110e+05 -7.91399123613917e-11 -4.19394569730061e-11
 3.59669955287204e+05 -7.89312589446731e-11 -4.16563354510440e-11
 3.63804092704298e+05 -7.87231556524609e-11 -4.13361493962246e-11
 3.67938230121393e+05 -7.85156010342869e-11 -4.09792459118182e-11
 3.72072367538487e+05 -7.83085936435071e-11 -4.05868417080164e-11
 3.76206504955581e+05 -7.81021320372964e-11 -4.01609485247574e-11
 3.80340642372676e+05 -7.78962147766392e-11 -3.97042786461293e-11
 3.84474779789770e+05 -7.76908404263169e-11 -3.92201358919079e-11
 3.88608917206864e+05 -7.74860075548910e-11 -3.87122977646806e-11
 3.92743054623959e+05 -7.72817147347066e-11 -3.81848944188732e-11
 3.96877192041053e+05 -7.70779605418693e-11 -3.76422898153173e-11
 4.01011329458147e+05 -7.68747435562414e-11 -3.70889698619004e-11
 4.05145466875241e+05 -7.66720623614287e-11 -3.65294415596286e-11
 4.09279604292336e+05 -7.64699155447750e-11 -3.59681462274421e-11
 4.13413741709430e+05 -7.62683016973461e-11 -3.54093888280421e-11
 4.17547879126524e+05 -7.60672194139290e-11 -3.48572843244853e-11
 4.21682016543619e+05 -7.58666672930107e-11 -3.43157209264591e-11
 4.25816153960713e+05 -7.56666439367733e-11 -3.37883390959489e-11
 4.29950291377807e+05 -7.54671479510871e-11 -3.32785243270284e-11
 4.34084428794902e+05 -7.52681779454981e-11 -3.27894110372650e-11
 4.38218566211996e+05 -7.50697325332199e-11 -3.23238944402696e-11
 4.42352703629090e+05 -7.48718103311177e-11 -3.18846470287120e-11
 4.46486841046185e+05 -7.46744099597081e-11 -3.14741362894758e-11
 4.50620978463279e+05 -7.44775300431439e-11 -3.10946404885331e-11
 4.54755115880373e+05 -7.42811692092041e-11 -3.07482597811482e-11
 4.58889253297468e+05 -7.40853260892888e-11 -3.04369204901907e-11
 4.63023390714562e+05 -7.38899993184044e-11 -3.01623711100600e-11
 4.67157528131656e+05 -7.36951875351568e-11 -2.99261693878643e-11
 4.71291665548751e+05 -7.35008893817391e-11 -2.97296606555013e-11
 4.75425802965845e+05 -7.33071035039289e-11 -2.95739483842971e-11
 4.79559940382939e+05 -7.31138285510713e-11 -2.94598586584615e-11
 4.83694077800033e+05 -7.29210631760721e-11 -2.93879008709967e-11
 4.87828215217128e+05 -7.27288060353910e-11 -2.93582273994995e-11
 4.91962352634222e+05 -7.25370557890295e-11 -2.93705952931553e-11
 4.96096490051316e+05 -7.23458111005221e-11 -2.94243330806357e-11
 5.00230627468411e+05 -7.21550706369281e-11 -2.95183156877374e-11
 5.04364764885505e+05 -7.19648330688183e-11 -2.96509501414042e-11
 5.08498902302599e+05 -7.17750970702703e-11 -2.98201742521406e-11
 5.12633039719694e+05 -7.15858613188583e-11 -3.00234698384456e-11
 5.16767177136788e+05 -7.13971244956442e-11 -3.02578913214348e-11
 5.20901314553882e+05 -7.12088852851619e-11 -3.05201097176851e-11
 5.25035451970977e+05 -7.10211423754209e-11 -3.08064712392152e-11
 5.29169589388071e+05 -7.08338944578849e-11 -3.11130689176621e-11
 5.33303726805165e+05 -7.06471402274703e-11 -3.14358249496787e-11
 5.37437864222260e+05 -7.04608783825326e-11 -3.17705808520514e-11
 5.41572001639354e+05 -7.02751076248617e-11 -3.21131920516202e-11
 5.45706139056448e+05 -7.00898266596660e-11 -3.24596232416527e-11
 5.49840276473543e+05 -6.99050341955735e-11 -3.28060407284582e-11
 5.53974413890637e+05 -6.97207289446138e-11 -3.31488980747120e-11
 5.58108551307731e+05 -6.95369096222141e-11 -3.34850116142104e-11
 5.62242688724826e+05 -6.93535749471857e-11 -3.38116228510962e-11
 5.66376826141920e+05 -6.91707236417189e-11 -3.41264453411210e-11
 5.70510963559014e+05 -6.89883544313734e-11 -3.44276943514078e-11
 5.74645100976108e+05 -6.88064660450711e-11 -3.47140983713916e-11
 5.78779238393203e+05 -6.86250572150821e-11 -3.49848923603168e-11
 5.82913375810297e+05 -6.84441266770199e-11 -3.52397934239731e-11
 5.87047513227391e+05 -6.82636731698314e-11 -3.54789603743513e-11
 5.91181650644486e+05 -6.80836954357924e-11 -3.57029393030664e-11
 5.95315788061580e+05 -6.79041922204888e-11 -3.59125978601893e-11
 5.99449925478674e+05 -6.77251622728178e-11 -3.61090513492122e-11
 6.03584062895769e+05 -6.75466043449754e-11 -3.62935840084203e-11
 6.07718200312863e+05 -6.73685171924411e-11 -3.64675689405271e-11
 6.11852337729957e+05 -6.71908995739872e-11 -3.66323900762236e-11
 6.15986475147052e+05 -6.70137502516489e-11 -3.67893693222218e-11
 6.20120612564146e+05 -6.68370679907285e-11 -3.69397016679966e-11
 6.24254749981240e+05 -6.66608515597854e-11 -3.70844005312186e-11
 6.28388887398335e+05 -6.64850997306243e-11 -3.72242550397025e-11
 6.32523024815429e+05 -6.63098112782886e-11 -3.73598003103687e-11
 6.36657162232523e+05 -6.61349849810517e-11 -3.74913011281062e-11
 6.40791299649618e+05 -6.59606196204064e-11 -3.76187487841169e-11
 6.44925437066712e+05 -6.57867139810615e-11 -3.77418702368071e-11
 6.49059574483806e+05 -6.56132668509236e-11 -3.78601482372904e-11
 6.53193711900900e+05 -6.54402770211046e-11 -3.79728506396141e-11
 6.57327849317995e+05 -6.52677432858954e-11 -3.80790668099238e-11
 6.61461986735089e+05 -6.50956644427723e-11 -3.81777488693344e-11
 6.65596124152183e+05 -6.49240392923758e-11 -3.82677554546302e-11
 6.69730261569278e+05 -6.47528666385146e-11 -3.83478957550298e-11
 6.73864398986372e+05 -6.45821452881471e-11 -3.84169717705325e-11
 6.77998536403466e+05 -6.44118740513798e-11 -3.84738170211699e-11
 6.82132673820561e+05 -6.42420517414545e-11 -3.85173302948932e-11
 6.86266811237655e+05 -6.40726771747422e-11 -3.85465034302115e-11
 6.90400948654749e+05 -6.39037491707383e-11 -3.85604425613965e-11
 6.94535086071844e+05 -6.37352665520462e-11 -3.85583826825906e-11
 6.98669223488938e+05 -6.35672281443752e-11 -3.85396957874047e-11
 7.02803360906032e+05 -6.33996327765308e-11 -3.85038931902355e-11
 7.06937498323127e+05 -6.32324792804058e-11 -3.84506229166198e-11
 7.11071635740221e+05 -6.30657664909755e-11 -3.83796632492002e-11
 7.15205773157315e+05 -6.28994932462848e-11 -3.82909136258517e-11
 7.19339910574410e+05 -6.27336583874406e-11 -3.81843841055628e-11
 7.23474047991504e+05 -6.25682607586093e-11 -3.80601845497462e-11
 7.27608185408598e+05 -6.24032992070015e-11 -3.79185145212565e-11
 7.31742322825692e+05 -6.22387725828696e-11 -3.77596546944047e-11
 7.35876460242787e+05 -6.20746797394943e-11 -3.75839603140513e-11
 7.40010597659881e+05 -6.19110195331818e-11 -3.73918569604254e-11
 7.44144735076975e+05 -6.17477908232553e-11 -3.71838385893936e-11
 7.48278872494070e+05 -6.15849924720425e-11 -3.69604675461622e-11
 7.52413009911164e+05 -6.14226233448717e-11 -3.67223760129622e-11
 7.56547147328258e+05 -6.12606823100647e-11 -3.64702681643105e-11
 7.60681284745353e+05 -6.10991682389241e-11 -3.62049221797603e-11
 7.64815422162447e+05 -6.09380800057297e-11 -3.59271912118531e-11
 7.68949559579541e+05 -6.07774164877308e-11 -3.56380024294733e-11
 7.73083696996636e+05 -6.06171765651333e-11 -3.53383533525424e-11
 7.77217834413730e+05 -6.04573591211016e-11 -3.50293048563539e-11
 7.81351971830824e+05 -6.02979630417405e-11 -3.47119704419189e-11
 7.85486109247919e+05 -6.01389872160894e-11 -3.43875016281492e-11
 7.89620246665013e+05 -5.99804305361224e-11 -3.40570696050068e-11
 7.93754384082107e+05 -5.98222918967319e-11 -3.37218435752302e-11
 7.97888521499202e+05 -5.96645701957253e-11 -3.33829664865362e-11
 8.02022658916296e+05 -5.95072643338123e-11 -3.30415290975917e-11
 8.06156796333390e+05 -5.93503732146101e-11 -3.26985435131043e-11
 8.10290933750484e+05 -5.91938957446165e-11 -3.23549174520712e-11
 8.14425071167579e+05 -5.90378308332155e-11 -3.20114305689587e-11
 8.18559208584673e+05 -5.88821773926683e-11 -3.16687141243800e-11
 8.22693346001767e+05 -5.87269343381029e-11 -3.13272351992202e-11
 8.26827483418862e+05 -5.85721005875107e-11 -3.09872864680121e-11
 8.30961620835956e+05 -5.84176750617299e-11 -3.06489823022527e-11
 8.35095758253050e+05 -5.82636566844494e-11 -3.03122616751957e-11
 8.39229895670145e+05 -5.81100443821936e-11 -2.99768980023952e-11
 8.43364033087239e+05 -5.79568370843164e-11 -2.96425156957979e-11
 8.47498170504333e+05 -5.78040337229982e-11 -2.93086128533256e-11
 8.51632307921428e+05 -5.76516332332314e-11 -2.89745891710140e-11
 8.55766445338522e+05 -5.74996345528189e-11 -2.86397778704136e-11
 8.59900582755616e+05 -5.73480366223600e-11 -2.83034801971905e-11
 8.64034720172711e+05 -5.71968383852500e-11 -2.79650008823457e-11
 8.68168857589805e+05 -5.70460387876716e-11 -2.76236828753811e-11
 8.72302995006899e+05 -5.68956367785824e-11 -2.72789396652602e-11
 8.76437132423994e+05 -5.67456313097144e-11 -2.69302836011866e-11
 8.80571269841088e+05 -5.65960213355610e-11 -2.65773488072145e-11
 8.84705407258182e+05 -5.64468058133743e-11 -2.62199075440381e-11
 8.88839544675276e+05 -5.62979837031535e-11 -2.58578791949694e-11
 8.92973682092371e+05 -5.61495539676435e-11 -2.54913314247317e-11
 8.97107819509465e+05 -5.60015155723203e-11 -2.51204734597927e-11
 9.01241956926559e+05 -5.58538674853886e-11 -2.47456418468612e-11
 9.05376094343654e+05 -5.57066086777746e-11 -2.43672794399759e-11
 9.09510231760748e+05 -5.55597381231158e-11 -2.39859087256905e-11
 9.13644369177842e+05 -5.54132547977570e-11 -2.36021009007326e-11
 9.17778506594937e+05 -5.52671576807420e-11 -2.32164423508249e-11
 9.21912644012031e+05 -5.51214457538079e-11 -2.28295003302470e-11
 9.26046781429125e+05 -5.49761180013748e-11 -2.24417897006566e-11
 9.30180918846220e+05 -5.48311734105398e-11 -2.20537425510697e-11
 9.34315056263314e+05 -5.46866109710705e-11 -2.16656823899194e-11
 9.38449193680408e+05 -5.45424296754012e-11 -2.12778043811592e-11
 9.42583331097503e+05 -5.43986285186202e-11 -2.08901628001470e-11
 9.46717468514597e+05 -5.42552064984645e-11 -2.05026665266520e-11
 9.50851605931691e+05 -5.41121626153170e-11 -2.01150829897042e-11
 9.54985743348786e+05 -5.39694958721932e-11 -1.97270505527846e-11
 9.59119880765880e+05 -5.38272052747382e-11 -1.93380988997241e-11
 9.63254018182974e+05 -5.36852898312203e-11 -1.89476765733630e-11
 9.67388155600069e+05 -5.35437485525169e-11 -1.85551844514262e-11
 9.71522293017163e+05 -5.34025804521221e-11 -1.81600136358702e-11
 9.75656430434257e+05 -5.32617845461247e-11 -1.77615859986303e-11
 9.79790567851351e+05 -5.31213598532094e-11 -1.73593954803976e-11
 9.83924705268446e+05 -5.29813053946484e-11 -1.69530481866461e-11
 9.88058842685540e+05 -5.28416201942948e-11 -1.65422993695641e-11
 9.92192980102634e+05 -5.27023032785742e-11 -1.61270855231860e-11
 9.96327117519729e+05 -5.25633536764800e-11 -1.57075500448188e-11
 1.00046125493682e+06 -5.24247704195650e-11 -1.52840612172904e-11
 1.00459539235392e+06 -5.22865525419367e-11 -1.48572216282151e-11
 1.00872952977101e+06 -5.21486990802489e-11 -1.44278685462420e-11
 1.01286366718811e+06 -5.20112090736956e-11 -1.39970651996775e-11
 1.01699780460520e+06 -5.18740815640020e-11 -1.35660833287892e-11
 1.02113194202229e+06 -5.17373155954221e-11 -1.31363777882230e-11
 1.02526607943939e+06 -5.16009102147299e-11 -1.27095543403509e-11
 1.02940021685648e+06 -5.14648644712098e-11 -1.22873320861851e-11
 1.03353435427358e+06 -5.13291774166565e-11 -1.18715022129226e-11
 1.03766849169067e+06 -5.11938481053623e-11 -1.14638848852799e-11
 1.04180262910777e+06 -5.10588755941141e-11 -1.10662861649136e-11
 1.04593676652486e+06 -5.09242589421858e-11 -1.06804568062205e-11
 1.05007090394195e+06 -5.07899972113314e-11 -1.03080546504896e-11
 1.05420504135905e+06 -5.06560894657772e-11 -9.95061213070838e-12
 1.05833917877614e+06 -5.05225347722205e-11 -9.60951011774254e-12
 1.06247331619324e+06 -5.03893321998163e-11 -9.28595899978842e-12
 1.06660745361033e+06 -5.02564808201721e-11 -8.98098750865426e-12
 1.07074159102743e+06 -5.01239797073465e-11 -8.69543940783491e-12
 1.07487572844452e+06 -4.99918279378400e-11 -8.42997775888372e-12
 1.07900986586161e+06 -4.98600245905848e-11 -8.18509610442473e-12
 1.08314400327871e+06 -4.97285687469441e-11 -7.96113556719479e-12
 1.08727814069580e+06 -4.95974594907008e-11 -7.75830658164679e-12
 1.09141227811290e+06 -4.94666959080577e-11 -7.57671376194033e-12
 1.09554641552999e+06 -4.93362770876222e-11 -7.41638227775123e-12
 1.09968055294709e+06 -4.92062021204086e-11 -7.27728406371164e-12
 1.10381469036418e+06 -4.90764700998254e-11 -7.15936223100060e-12
 1.10794882778128e+06 -4.89470801216691e-11 -7.06255217837490e-12
 1.11208296519837e+06 -4.88180312841260e-11 -6.98679810750922e-12
 1.11621710261546e+06 -4.86893226877566e-11 -6.93206392320487e-12
 1.12035124003256e+06 -4.85609534354940e-11 -6.89833782864803e-12
 1.12448537744965e+06 -4.84329226326346e-11 -6.88563029220969e-12
 1.12861951486675e+06 -4.83052293868366e-11 -6.89396544694294e-12
 1.13275365228384e+06 -4.81778728081088e-11 -6.92336636688583e-12
 1.13688778970094e+06 -4.80508520088071e-11 -6.97383502631466e-12
 1.14102192711803e+06 -4.79241661036294e-11 -7.04532807037718e-12
 1.14515606453512e+06 -4.77978142096030e-11 -7.13772979167423e-12
 1.14929020195222e+06 -4.76717954460885e-11 -7.25082390351830e-12
 1.15342433936931e+06 -4.75461089347677e-11 -7.38426581617721e-12
 1.15755847678641e+06 -4.74207537996357e-11 -7.53755715131933e-12
 1.16169261420350e+06 -4.72957291669978e-11 -7.71002416954870e-12
 1.16582675162060e+06 -4.71710341654643e-11 -7.90080163876356e-12
 1.16996088903769e+06 -4.70466679259428e-11 -8.10882344339906e-12
 1.17409502645478e+06 -4.69226295816305e-11 -8.33282093685870e-12
 1.17822916387188e+06 -4.67989182680124e-11 -8.57132968544936e-12
 1.18236330128897e+06 -4.66755331228508e-11 -8.82270485847989e-12
 1.18649743870607e+06 -4.65524732861822e-11 -9.08514510470624e-12
 1.19063157612316e+06 -4.64297379003109e-11 -9.35672433956161e-12
 1.19476571354026e+06 -4.63073261098016e-11 -9.63543047081097e-12
 1.19889985095735e+06 -4.61852370614778e-11 -9.91920973144319e-12
 1.20303398837444e+06 -4.60634699044077e-11 -1.02060149853676e-11
 1.20716812579154e+06 -4.59420237899052e-11 -1.04938561388771e-11
 1.21130226320863e+06 -4.58208978715224e-11 -1.07808506405164e-11
 1.21543640062573e+06 -4.57000913050422e-11 -1.10652719920932e-11
 1.21957053804282e+06 -4.55796032484751e-11 -1.13455942278303e-11
 1.22370467545992e+06 -4.54594328620481e-11 -1.16205304464190e-11
 1.22783881287701e+06 -4.53395793082053e-11 -1.18890636972426e-11
 1.23197295029410e+06 -4.52200417515982e-11 -1.21504688179371e-11
 1.23610708771120e+06 -4.51008193590809e-11 -1.24043241831979e-11
 1.24024122512829e+06 -4.49819112997059e-11 -1.26505127380771e-11
 1.24437536254539e+06 -4.48633167447111e-11 -1.28892121346618e-11
