#time(au), s(t), s(t) without exp(iwt)
 0.00000000000000e+01 -1.97416305905878e-17 -1.97416305905878e-17
 4.13413741709430e+03  2.53690375361009e-16  1.41150991684605e-16
 8.26827483418859e+03  7.70015583496412e-16  5.93793061020816e-16
 1.24024122512829e+04  1.41622332144815e-15  1.44753977793251e-15
 1.65365496683772e+04  2.12729911456559e-15  2.71272949676061e-15
 2.06706870854715e+04  2.86650002590616e-15  4.35701706215906e-15
 2.48048245025658e+04  3.61358791171286e-15  6.33178383771983e-15
 2.89389619196601e+04  4.35785993737698e-15  8.58394461585261e-15
 3.30730993367544e+04  5.09404223189961e-15  1.10608805512385e-14
 3.72072367538487e+04  5.81988816626422e-15  1.37123674723422e-14
 4.13413741709430e+04  6.53478680925895e-15  1.64913595221846e-14
 4.54755115880372e+04  7.23896653512073e-15  1.93544504256257e-14
 4.96096490051315e+04  7.93304687399789e-15  2.22623140665882e-14
 5.37437864222258e+04  8.61779252127479e-15  2.51801797915741e-14
 5.78779238393201e+04  9.29398355251806e-15  2.80782947586344e-14
 6.20120612564144e+04  9.96235154887841e-15  3.09322952148780e-14
 6.61461986735087e+04  1.06235523875587e-14  3.37234134243447e-14
 7.02803360906030e+04  1.12781587988933e-14  3.64384675027759e-14
 7.44144735076973e+04  1.19266630610384e-14  3.90696076026054e-14
 7.85486109247916e+04  1.25694843705828e-14  4.16138183183310e-14
 8.26827483418859e+04  1.32069779279337e-14  4.40722012104043e-14
 8.68168857589802e+04  1.38394441346993e-14  4.64490811785446e-14
 9.09510231760745e+04  1.44671371299800e-14  4.87509953120750e-14
 9.50851605931688e+04  1.50902723572672e-14  5.09856322353587e-14
 9.92192980102631e+04  1.57090330552631e-14  5.31607936257915e-14
 1.03353435427357e+05  1.63235757314576e-14  5.52834477955487e-14
 1.07487572844452e+05  1.69340347238169e-14  5.73589382581182e-14
 1.11621710261546e+05  1.75405259612713e-14  5.93903987733083e-14
 1.15755847678640e+05  1.81431500592856e-14  6.13784114101620e-14
 1.19889985095735e+05  1.87419948558763e-14  6.33209266943985e-14
 1.24024122512829e+05  1.93371374899917e-14  6.52134461795770e-14
 1.28158259929923e+05  1.99286461067061e-14  6.70494490503152e-14
 1.32292397347018e+05  2.05165812622734e-14  6.88210268758167e-14
 1.36426534764112e+05  2.11009970756090e-14  7.05196755433615e-14
 1.40560672181206e+05  2.16819421921529e-14  7.21371817846950e-14
 1.44694809598300e+05  2.22594605763419e-14  7.36665342158380e-14
 1.48828947015395e+05  2.28335921771074e-14  7.51027861410467e-14
 1.52963084432489e+05  2.34043734886036e-14  7.64437995870316e-14
 1.57097221849583e+05  2.39718380180076e-14  7.76908071109116e-14
 1.61231359266678e+05  2.45360166830350e-14  7.88487394667585e-14
 1.65365496683772e+05  2.50969381543966e-14  7.99262824811473e-14
 1.69499634100866e+05  2.56546291395755e-14  8.09356445367006e-14
 1.73633771517960e+05  2.62091146332456e-14  8.18920358349654e-14
 1.77767908935055e+05  2.67604181250267e-14  8.28128807335032e-14
 1.81902046352149e+05  2.73085617875436e-14  8.37168037649860e-14
 1.86036183769243e+05  2.78535666305811e-14  8.46224470643336e-14
 1.90170321186338e+05  2.83954526397427e-14  8.55471908394410e-14
 1.94304458603432e+05  2.89342388933041e-14  8.65058581547081e-14
 1.98438596020526e+05  2.94699436680910e-14  8.75094900425316e-14
 2.02572733437620e+05  3.00025845245654e-14  8.85642763227187e-14
 2.06706870854715e+05  3.05321783921794e-14  8.96707215078894e-14
 2.10841008271809e+05  3.10587416306184e-14  9.08231139048220e-14
 2.14975145688903e+05  3.15822900970452e-14  9.20093502523270e-14
 2.19109283105998e+05  3.21028391946067e-14  9.32111485817515e-14
 2.23243420523092e+05  3.26204039200111e-14  9.44046597919252e-14
 2.27377557940186e+05  3.31349989064951e-14  9.55614647802669e-14
 2.31511695357280e+05  3.36466384582844e-14  9.66499203579213e-14
 2.35645832774375e+05  3.41553365803882e-14  9.76367949851587e-14
 2.39779970191469e+05  3.46611070093609e-14  9.84891159275930e-14
 2.43914107608563e+05  3.51639632421823e-14  9.91761339665117e-14
 2.48048245025658e+05  3.56639185486908e-14  9.96713012851919e-14
 2.52182382442752e+05  3.61609860006914e-14  9.99541533924335e-14
 2.56316519859846e+05  3.66551784828746e-14  1.00011987143484e-13
 2.60450657276940e+05  3.71465087127373e-14  9.98412343978212e-14
 2.64584794694035e+05  3.76349892527476e-14  9.94484440436104e-14
 2.68718932111129e+05  3.81206325223030e-14  9.88508035728572e-14
 2.72853069528223e+05  3.86034508096799e-14  9.80761540607143e-14
 2.76987206945318e+05  3.90834562784631e-14  9.71624781017891e-14
 2.81121344362412e+05  3.95606609830993e-14  9.61568676325089e-14
 2.85255481779506e+05  4.00350768690784e-14  9.51140060338277e-14
 2.89389619196601e+05  4.05067157846841e-14  9.40942250847853e-14
 2.93523756613695e+05  4.09755894863464e-14  9.31612205843999e-14
 2.97657894030789e+05  4.14417096434441e-14  9.23795296180541e-14
