#time(au), total f, f in each valley
 0.00000000000000e+01 -7.87393102175671e-20
 4.13413741709430e+03 -4.39293803973886e-16
 8.26827483418859e+03 -8.12308602802930e-16
 1.24024122512829e+04 -1.12960223059137e-15
 1.65365496683772e+04 -1.40056748279584e-15
 2.06706870854715e+04 -1.63317633421300e-15
 2.48048245025658e+04 -1.83401213471674e-15
 2.89389619196601e+04 -2.00843892274930e-15
 3.30730993367544e+04 -2.16080326989088e-15
 3.72072367538487e+04 -2.29462465875350e-15
 4.13413741709430e+04 -2.41275907784771e-15
 4.54755115880372e+04 -2.51753338398993e-15
 4.96096490051315e+04 -2.61085310720282e-15
 5.37437864222258e+04 -2.69428786104046e-15
 5.78779238393201e+04 -2.76913871742200e-15
 6.20120612564144e+04 -2.83649120717219e-15
 6.61461986735087e+04 -2.89725713141921e-15
 7.02803360906030e+04 -2.95220752201140e-15
 7.44144735076973e+04 -3.00199881092156e-15
 7.85486109247916e+04 -3.04719355801782e-15
 8.26827483418859e+04 -3.08827704571885e-15
 8.68168857589802e+04 -3.12567051750457e-15
 9.09510231760745e+04 -3.15974179532280e-15
 9.50851605931688e+04 -3.19081391415413e-15
 9.92192980102631e+04 -3.21917207500581e-15
 1.03353435427357e+05 -3.24506927004892e-15
 1.07487572844452e+05 -3.26873095026797e-15
 1.11621710261546e+05 -3.29035880851286e-15
 1.15755847678640e+05 -3.31013394694542e-15
 1.19889985095735e+05 -3.32821948459065e-15
 1.24024122512829e+05 -3.34476275729904e-15
 1.28158259929923e+05 -3.35989716755673e-15
 1.32292397347018e+05 -3.37374375860983e-15
 1.36426534764112e+05 -3.38641255642787e-15
 1.40560672181206e+05 -3.39800371241278e-15
 1.44694809598300e+05 -3.40860853607458e-15
 1.48828947015395e+05 -3.41831035163963e-15
 1.52963084432489e+05 -3.42718526575891e-15
 1.57097221849583e+05 -3.43530284111930e-15
 1.61231359266678e+05 -3.44272671388755e-15
 1.65365496683772e+05 -3.44951511427311e-15
 1.69499634100866e+05 -3.45572136088107e-15
 1.73633771517960e+05 -3.46139427631799e-15
 1.77767908935055e+05 -3.46657859487230e-15
 1.81902046352149e+05 -3.47131529721044e-15
 1.86036183769243e+05 -3.47564194080676e-15
 1.90170321186338e+05 -3.47959294821274e-15
 1.94304458603432e+05 -3.48319986428459e-15
 1.98438596020526e+05 -3.48649161565885e-15
 2.02572733437620e+05 -3.48949469968900e-15
 2.06706870854715e+05 -3.49223342700669e-15
 2.10841008271809e+05 -3.49473006041642e-15
 2.14975145688903e+05 -3.49700500664590e-15
 2.19109283105998e+05 -3.49907697330705e-15
 2.23243420523092e+05 -3.50096311389244e-15
 2.27377557940186e+05 -3.50267913752572e-15
 2.31511695357280e+05 -3.50423942943943e-15
 2.35645832774375e+05 -3.50565718565359e-15
 2.39779970191469e+05 -3.50694450463922e-15
 2.43914107608563e+05 -3.50811243815575e-15
 2.48048245025658e+05 -3.50917113358104e-15
 2.52182382442752e+05 -3.51012987484945e-15
 2.56316519859846e+05 -3.51099716609564e-15
 2.60450657276940e+05 -3.51178080524877e-15
 2.64584794694035e+05 -3.51248791831792e-15
 2.68718932111129e+05 -3.51312503440343e-15
 2.72853069528223e+05 -3.51369813301947e-15
 2.76987206945318e+05 -3.51421268877670e-15
 2.81121344362412e+05 -3.51467370327245e-15
 2.85255481779506e+05 -3.51508576983438e-15
 2.89389619196601e+05 -3.51545307376795e-15
 2.93523756613695e+05 -3.51577945787501e-15
 2.97657894030789e+05 -3.51606843561461e-15
 3.01792031447884e+05 -3.51632321963149e-15
 3.05926168864978e+05 -3.51654674690816e-15
 3.10060306282072e+05 -3.51674170340726e-15
 3.14194443699167e+05 -3.51691055588214e-15
 3.18328581116261e+05 -3.51705554150022e-15
 3.22462718533355e+05 -3.51717872823208e-15
 3.26596855950449e+05 -3.51728199434565e-15
 3.30730993367544e+05 -3.51736705360540e-15
 3.34865130784638e+05 -3.51743548651725e-15
 3.38999268201732e+05 -3.51748872197643e-15
 3.43133405618827e+05 -3.51752808309038e-15
 3.47267543035921e+05 -3.51755476335250e-15
 3.51401680453015e+05 -3.51756986494328e-15
 3.55535817870110e+05 -3.51757439162987e-15
 3.59669955287204e+05 -3.51756925074009e-15
 3.63804092704298e+05 -3.51755529771840e-15
 3.67938230121393e+05 -3.51753328368282e-15
 3.72072367538487e+05 -3.51750391065225e-15
 3.76206504955581e+05 -3.51746781970843e-15
 3.80340642372676e+05 -3.51742559287863e-15
 3.84474779789770e+05 -3.51737777083077e-15
 3.88608917206864e+05 -3.51732483478349e-15
 3.92743054623959e+05 -3.51726722849983e-15
 3.96877192041053e+05 -3.51720536323402e-15
 4.01011329458147e+05 -3.51713960606134e-15
 4.05145466875241e+05 -3.51707029832464e-15
 4.09279604292336e+05 -3.51699775237570e-15
 4.13413741709430e+05 -3.51692224788954e-15
 4.17547879126524e+05 -3.51684404556149e-15
 4.21682016543619e+05 -3.51676337270594e-15
 4.25816153960713e+05 -3.51668045893242e-15
 4.29950291377807e+05 -3.51659548709358e-15
 4.34084428794902e+05 -3.51650864305313e-15
 4.38218566211996e+05 -3.51642009582816e-15
 4.42352703629090e+05 -3.51632998357683e-15
 4.46486841046185e+05 -3.51623844877353e-15
 4.50620978463279e+05 -3.51614561862229e-15
 4.54755115880373e+05 -3.51605160877786e-15
 4.58889253297468e+05 -3.51595651665774e-15
 4.63023390714562e+05 -3.51586044227803e-15
 4.67157528131656e+05 -3.51576345860833e-15
 4.71291665548751e+05 -3.51566566294534e-15
 4.75425802965845e+05 -3.51556711817072e-15
 4.79559940382939e+05 -3.51546789760171e-15
 4.83694077800033e+05 -3.51536804703177e-15
 4.87828215217128e+05 -3.51526763617489e-15
 4.91962352634222e+05 -3.51516670743338e-15
 4.96096490051316e+05 -3.51506530438807e-15
 5.00230627468411e+05 -3.51496347671850e-15
 5.04364764885505e+05 -3.51486125372800e-15
 5.08498902302599e+05 -3.51475868055005e-15
 5.12633039719694e+05 -3.51465577972637e-15
 5.16767177136788e+05 -3.51455258044831e-15
 5.20901314553882e+05 -3.51444911453530e-15
 5.25035451970977e+05 -3.51434540058403e-15
 5.29169589388071e+05 -3.51424146077674e-15
 5.33303726805165e+05 -3.51413731571947e-15
 5.37437864222260e+05 -3.51403297900029e-15
 5.41572001639354e+05 -3.51392847854367e-15
 5.45706139056448e+05 -3.51382382324139e-15
 5.49840276473543e+05 -3.51371903079151e-15
 5.53974413890637e+05 -3.51361410839466e-15
 5.58108551307731e+05 -3.51350907167771e-15
 5.62242688724826e+05 -3.51340392755843e-15
 5.66376826141920e+05 -3.51329869118935e-15
 5.70510963559014e+05 -3.51319337037507e-15
 5.74645100976108e+05 -3.51308796041632e-15
 5.78779238393203e+05 -3.51298248318013e-15
 5.82913375810297e+05 -3.51287694162157e-15
 5.87047513227391e+05 -3.51277134317402e-15
 5.91181650644486e+05 -3.51266569097521e-15
 5.95315788061580e+05 -3.51255998666621e-15
 5.99449925478674e+05 -3.51245423542946e-15
 6.03584062895769e+05 -3.51234844858443e-15
 6.07718200312863e+05 -3.51224262695310e-15
 6.11852337729957e+05 -3.51213676619863e-15
 6.15986475147052e+05 -3.51203087907823e-15
 6.20120612564146e+05 -3.51192496867662e-15
 6.24254749981240e+05 -3.51181903150839e-15
 6.28388887398335e+05 -3.51171307064354e-15
 6.32523024815429e+05 -3.51160709001235e-15
 6.36657162232523e+05 -3.51150109755493e-15
 6.40791299649618e+05 -3.51139508269135e-15
 6.44925437066712e+05 -3.51128905698559e-15
 6.49059574483806e+05 -3.51118302080299e-15
 6.53193711900900e+05 -3.51107697488012e-15
 6.57327849317995e+05 -3.51097091759948e-15
 6.61461986735089e+05 -3.51086485411405e-15
 6.65596124152183e+05 -3.51075877643363e-15
 6.69730261569278e+05 -3.51065269102226e-15
 6.73864398986372e+05 -3.51054660456204e-15
 6.77998536403466e+05 -3.51044051271019e-15
 6.82132673820561e+05 -3.51033441302428e-15
 6.86266811237655e+05 -3.51022831296714e-15
 6.90400948654749e+05 -3.51012220548842e-15
 6.94535086071844e+05 -3.51001610181920e-15
 6.98669223488938e+05 -3.50990999532157e-15
 7.02803360906032e+05 -3.50980388804025e-15
 7.06937498323127e+05 -3.50969777633073e-15
 7.11071635740221e+05 -3.50959166969758e-15
 7.15205773157315e+05 -3.50948555747246e-15
 7.19339910574410e+05 -3.50937944940155e-15
 7.23474047991504e+05 -3.50927333547645e-15
 7.27608185408598e+05 -3.50916722756168e-15
 7.31742322825692e+05 -3.50906111543968e-15
 7.35876460242787e+05 -3.50895500592806e-15
 7.40010597659881e+05 -3.50884889167298e-15
 7.44144735076975e+05 -3.50874279227286e-15
 7.48278872494070e+05 -3.50863669253686e-15
 7.52413009911164e+05 -3.50853058361448e-15
 7.56547147328258e+05 -3.50842448017801e-15
 7.60681284745353e+05 -3.50831838276660e-15
 7.64815422162447e+05 -3.50821228516663e-15
 7.68949559579541e+05 -3.50810619118464e-15
 7.73083696996636e+05 -3.50800009020828e-15
 7.77217834413730e+05 -3.50789399758157e-15
 7.81351971830824e+05 -3.50778791205530e-15
 7.85486109247919e+05 -3.50768182553910e-15
 7.89620246665013e+05 -3.50757574292077e-15
 7.93754384082107e+05 -3.50746965840801e-15
 7.97888521499202e+05 -3.50736357770474e-15
 8.02022658916296e+05 -3.50725750788195e-15
 8.06156796333390e+05 -3.50715143701913e-15
 8.10290933750484e+05 -3.50704536710795e-15
 8.14425071167579e+05 -3.50693930566427e-15
 8.18559208584673e+05 -3.50683324083830e-15
 8.22693346001767e+05 -3.50672717630991e-15
 8.26827483418862e+05 -3.50662111774470e-15
 8.30961620835956e+05 -3.50651505761505e-15
 8.35095758253050e+05 -3.50640900821561e-15
 8.39229895670145e+05 -3.50630295580216e-15
 8.43364033087239e+05 -3.50619690969367e-15
 8.47498170504333e+05 -3.50609086261587e-15
 8.51632307921428e+05 -3.50598482609445e-15
 8.55766445338522e+05 -3.50587878595800e-15
 8.59900582755616e+05 -3.50577275114541e-15
 8.64034720172711e+05 -3.50566672571659e-15
 8.68168857589805e+05 -3.50556069572111e-15
 8.72302995006899e+05 -3.50545467207772e-15
 8.76437132423994e+05 -3.50534865307466e-15
 8.80571269841088e+05 -3.50524263547402e-15
 8.84705407258182e+05 -3.50513661675969e-15
 8.88839544675276e+05 -3.50503060734371e-15
 8.92973682092371e+05 -3.50492459780104e-15
 8.97107819509465e+05 -3.50481859134897e-15
 9.01241956926559e+05 -3.50471258930449e-15
 9.05376094343654e+05 -3.50460659419546e-15
 9.09510231760748e+05 -3.50450059659391e-15
 9.13644369177842e+05 -3.50439460505278e-15
 9.17778506594937e+05 -3.50428861159364e-15
 9.21912644012031e+05 -3.50418262772158e-15
 9.26046781429125e+05 -3.50407664021091e-15
 9.30180918846220e+05 -3.50397065700470e-15
 9.34315056263314e+05 -3.50386467817956e-15
 9.38449193680408e+05 -3.50375870051228e-15
 9.42583331097503e+05 -3.50365273332185e-15
 9.46717468514597e+05 -3.50354676292295e-15
 9.50851605931691e+05 -3.50344079458643e-15
 9.54985743348786e+05 -3.50333483946675e-15
 9.59119880765880e+05 -3.50322887664559e-15
 9.63254018182974e+05 -3.50312291876528e-15
 9.67388155600069e+05 -3.50301696999770e-15
 9.71522293017163e+05 -3.50291102384344e-15
 9.75656430434257e+05 -3.50280508017286e-15
 9.79790567851351e+05 -3.50269913590419e-15
 9.83924705268446e+05 -3.50259319901881e-15
 9.88058842685540e+05 -3.50248725692741e-15
 9.92192980102634e+05 -3.50238132004792e-15
 9.96327117519729e+05 -3.50227538798848e-15
 1.00046125493682e+06 -3.50216946168011e-15
 1.00459539235392e+06 -3.50206353592268e-15
 1.00872952977101e+06 -3.50195761731284e-15
 1.01286366718811e+06 -3.50185170034405e-15
 1.01699780460520e+06 -3.50174578951818e-15
 1.02113194202229e+06 -3.50163988063684e-15
 1.02526607943939e+06 -3.50153397329637e-15
 1.02940021685648e+06 -3.50142806469786e-15
 1.03353435427358e+06 -3.50132216802280e-15
 1.03766849169067e+06 -3.50121626881985e-15
 1.04180262910777e+06 -3.50111037485238e-15
 1.04593676652486e+06 -3.50100448752280e-15
 1.05007090394195e+06 -3.50089859726465e-15
 1.05420504135905e+06 -3.50079271669964e-15
 1.05833917877614e+06 -3.50068683669147e-15
 1.06247331619324e+06 -3.50058096107909e-15
 1.06660745361033e+06 -3.50047508125948e-15
 1.07074159102743e+06 -3.50036920310449e-15
 1.07487572844452e+06 -3.50026333012900e-15
 1.07900986586161e+06 -3.50015746717957e-15
 1.08314400327871e+06 -3.50005160053556e-15
 1.08727814069580e+06 -3.49994573219450e-15
 1.09141227811290e+06 -3.49983988079140e-15
 1.09554641552999e+06 -3.49973403058447e-15
 1.09968055294709e+06 -3.49962818443747e-15
 1.10381469036418e+06 -3.49952233643138e-15
 1.10794882778128e+06 -3.49941649704305e-15
 1.11208296519837e+06 -3.49931065726582e-15
 1.11621710261546e+06 -3.49920481668132e-15
 1.12035124003256e+06 -3.49909898626136e-15
 1.12448537744965e+06 -3.49899315275668e-15
 1.12861951486675e+06 -3.49888732845312e-15
 1.13275365228384e+06 -3.49878150466514e-15
 1.13688778970094e+06 -3.49867567776005e-15
 1.14102192711803e+06 -3.49856986506468e-15
 1.14515606453512e+06 -3.49846405038649e-15
 1.14929020195222e+06 -3.49835824051657e-15
 1.15342433936931e+06 -3.49825243455926e-15
 1.15755847678641e+06 -3.49814662987767e-15
 1.16169261420350e+06 -3.49804082556436e-15
 1.16582675162060e+06 -3.49793502382901e-15
 1.16996088903769e+06 -3.49782922633036e-15
 1.17409502645478e+06 -3.49772343051991e-15
 1.17822916387188e+06 -3.49761764133556e-15
 1.18236330128897e+06 -3.49751185877141e-15
 1.18649743870607e+06 -3.49740607979579e-15
 1.19063157612316e+06 -3.49730029418523e-15
 1.19476571354026e+06 -3.49719451580180e-15
 1.19889985095735e+06 -3.49708874413286e-15
 1.20303398837444e+06 -3.49698297385749e-15
 1.20716812579154e+06 -3.49687720443948e-15
 1.21130226320863e+06 -3.49677144411062e-15
 1.21543640062573e+06 -3.49666569003075e-15
 1.21957053804282e+06 -3.49655993500513e-15
 1.22370467545992e+06 -3.49645418175316e-15
 1.22783881287701e+06 -3.49634842723135e-15
 1.23197295029410e+06 -3.49624267728210e-15
 1.23610708771120e+06 -3.49613693050597e-15
 1.24024122512829e+06 -3.49603119068885e-15
 1.24437536254539e+06 -3.49592545187936e-15
 1.24850949996248e+06 -3.49581971711505e-15
 1.25264363737958e+06 -3.49571398516146e-15
 1.25677777479667e+06 -3.49560825956586e-15
 1.26091191221376e+06 -3.49550253315415e-15
 1.26504604963086e+06 -3.49539681591998e-15
 1.26918018704795e+06 -3.49529109812014e-15
 1.27331432446505e+06 -3.49518538152531e-15
 1.27744846188214e+06 -3.49507966894621e-15
 1.28158259929924e+06 -3.49497395866223e-15
 1.28571673671633e+06 -3.49486824918258e-15
 1.28985087413343e+06 -3.49476255141719e-15
 1.29398501155052e+06 -3.49465685194592e-15
 1.29811914896761e+06 -3.49455115568311e-15
 1.30225328638471e+06 -3.49444546511244e-15
 1.30638742380180e+06 -3.49433977493068e-15
 1.31052156121890e+06 -3.49423408681718e-15
 1.31465569863599e+06 -3.49412840166759e-15
 1.31878983605309e+06 -3.49402272092264e-15
 1.32292397347018e+06 -3.49391704152413e-15
 1.32705811088727e+06 -3.49381136390219e-15
 1.33119224830437e+06 -3.49370569425279e-15
 1.33532638572146e+06 -3.49360003051061e-15
 1.33946052313856e+06 -3.49349436841537e-15
 1.34359466055565e+06 -3.49338870494130e-15
 1.34772879797275e+06 -3.49328304663198e-15
 1.35186293538984e+06 -3.49317738895022e-15
 1.35599707280693e+06 -3.49307173536079e-15
 1.36013121022403e+06 -3.49296608800855e-15
 1.36426534764112e+06 -3.49286043703244e-15
 1.36839948505822e+06 -3.49275479744650e-15
 1.37253362247531e+06 -3.49264915960178e-15
 1.37666775989241e+06 -3.49254352135344e-15
 1.38080189730950e+06 -3.49243789237691e-15
 1.38493603472659e+06 -3.49233226696535e-15
 1.38907017214369e+06 -3.49222664282066e-15
 1.39320430956078e+06 -3.49212101547930e-15
 1.39733844697788e+06 -3.49201539773386e-15
 1.40147258439497e+06 -3.49190978251629e-15
 1.40560672181207e+06 -3.49180416647083e-15
 1.40974085922916e+06 -3.49169855977379e-15
 1.41387499664625e+06 -3.49159295054004e-15
 1.41800913406335e+06 -3.49148734944086e-15
 1.42214327148044e+06 -3.49138174648556e-15
 1.42627740889754e+06 -3.49127615347971e-15
 1.43041154631463e+06 -3.49117055768966e-15
 1.43454568373173e+06 -3.49106496704965e-15
 1.43867982114882e+06 -3.49095937924687e-15
 1.44281395856591e+06 -3.49085379593416e-15
 1.44694809598301e+06 -3.49074821410046e-15
 1.45108223340010e+06 -3.49064263683934e-15
 1.45521637081720e+06 -3.49053706048271e-15
 1.45935050823429e+06 -3.49043148717838e-15
 1.46348464565139e+06 -3.49032592118663e-15
 1.46761878306848e+06 -3.49022035435226e-15
 1.47175292048557e+06 -3.49011479198144e-15
 1.47588705790267e+06 -3.49000923362046e-15
 1.48002119531976e+06 -3.48990367490004e-15
 1.48415533273686e+06 -3.48979812131786e-15
 1.48828947015395e+06 -3.48969256958298e-15
 1.49242360757105e+06 -3.48958702838092e-15
 1.49655774498814e+06 -3.48948148492793e-15
 1.50069188240524e+06 -3.48937595112388e-15
 1.50482601982233e+06 -3.48927041131539e-15
 1.50896015723942e+06 -3.48916487719314e-15
 1.51309429465652e+06 -3.48905934662701e-15
 1.51722843207361e+06 -3.48895381765186e-15
 1.52136256949071e+06 -3.48884829296643e-15
 1.52549670690780e+06 -3.48874277447695e-15
 1.52963084432490e+06 -3.48863725734274e-15
 1.53376498174199e+06 -3.48853174454835e-15
 1.53789911915908e+06 -3.48842623616448e-15
 1.54203325657618e+06 -3.48832072890607e-15
 1.54616739399327e+06 -3.48821522073728e-15
 1.55030153141037e+06 -3.48810972192870e-15
 1.55443566882746e+06 -3.48800421939018e-15
 1.55856980624456e+06 -3.48789872208418e-15
 1.56270394366165e+06 -3.48779323109198e-15
 1.56683808107874e+06 -3.48768774251570e-15
 1.57097221849584e+06 -3.48758225359471e-15
 1.57510635591293e+06 -3.48747677369217e-15
 1.57924049333003e+06 -3.48737128754359e-15
 1.58337463074712e+06 -3.48726581257012e-15
 1.58750876816422e+06 -3.48716034185691e-15
 1.59164290558131e+06 -3.48705487455839e-15
 1.59577704299840e+06 -3.48694940724220e-15
 1.59991118041550e+06 -3.48684394454571e-15
 1.60404531783259e+06 -3.48673848731156e-15
 1.60817945524969e+06 -3.48663302636809e-15
 1.61231359266678e+06 -3.48652757591324e-15
 1.61644773008388e+06 -3.48642212621852e-15
 1.62058186750097e+06 -3.48631667811183e-15
 1.62471600491806e+06 -3.48621123571790e-15
 1.62885014233516e+06 -3.48610579864784e-15
 1.63298427975225e+06 -3.48600036114172e-15
 1.63711841716935e+06 -3.48589492473456e-15
 1.64125255458644e+06 -3.48578948967089e-15
 1.64538669200354e+06 -3.48568406128929e-15
 1.64952082942063e+06 -3.48557863436313e-15
 1.65365496683772e+06 -3.48547320955827e-15
 1.65778910425482e+06 -3.48536778888699e-15
 1.66192324167191e+06 -3.48526237840676e-15
 1.66605737908901e+06 -3.48515696635324e-15
 1.67019151650610e+06 -3.48505155871319e-15
 1.67432565392320e+06 -3.48494615469702e-15
 1.67845979134029e+06 -3.48484075132902e-15
 1.68259392875739e+06 -3.48473535320533e-15
 1.68672806617448e+06 -3.48462996300704e-15
 1.69086220359157e+06 -3.48452456898747e-15
 1.69499634100867e+06 -3.48441917390135e-15
 1.69913047842576e+06 -3.48431379174630e-15
 1.70326461584286e+06 -3.48420840476530e-15
 1.70739875325995e+06 -3.48410302563604e-15
 1.71153289067705e+06 -3.48399765058438e-15
 1.71566702809414e+06 -3.48389227255112e-15
 1.71980116551123e+06 -3.48378690293233e-15
 1.72393530292833e+06 -3.48368153524038e-15
 1.72806944034542e+06 -3.48357616700043e-15
 1.73220357776252e+06 -3.48347080698345e-15
 1.73633771517961e+06 -3.48336545132985e-15
 1.74047185259671e+06 -3.48326009722302e-15
 1.74460599001380e+06 -3.48315474729102e-15
 1.74874012743089e+06 -3.48304938909187e-15
 1.75287426484799e+06 -3.48294404328166e-15
 1.75700840226508e+06 -3.48283870420068e-15
 1.76114253968218e+06 -3.48273337235272e-15
 1.76527667709927e+06 -3.48262803789144e-15
 1.76941081451637e+06 -3.48252270349203e-15
 1.77354495193346e+06 -3.48241737601040e-15
 1.77767908935055e+06 -3.48231205013447e-15
 1.78181322676765e+06 -3.48220672578470e-15
 1.78594736418474e+06 -3.48210140161465e-15
 1.79008150160184e+06 -3.48199608339306e-15
 1.79421563901893e+06 -3.48189077397189e-15
 1.79834977643603e+06 -3.48178545871422e-15
 1.80248391385312e+06 -3.48168015489681e-15
 1.80661805127021e+06 -3.48157484595000e-15
 1.81075218868731e+06 -3.48146954432459e-15
 1.81488632610440e+06 -3.48136425073948e-15
 1.81902046352150e+06 -3.48125895641487e-15
 1.82315460093859e+06 -3.48115366384621e-15
 1.82728873835569e+06 -3.48104838132130e-15
 1.83142287577278e+06 -3.48094310178387e-15
 1.83555701318987e+06 -3.48083781851061e-15
 1.83969115060697e+06 -3.48073253642763e-15
 1.84382528802406e+06 -3.48062725919122e-15
 1.84795942544116e+06 -3.48052198428529e-15
 1.85209356285825e+06 -3.48041671559888e-15
 1.85622770027535e+06 -3.48031144789356e-15
 1.86036183769244e+06 -3.48020618441316e-15
 1.86449597510954e+06 -3.48010093006316e-15
 1.86863011252663e+06 -3.47999567049537e-15
